2.661562712091836e-05
2.8531045472846017e-05
2.425989794119232e-05
2.2095038843872317e-05
2.279491673107259e-05
2.602988445232768e-05
2.9396656032076862e-05
2.444117603772611e-05
2.027143045779667e-05
2.200737776547612e-05
1.738876210310991e-05
1.6975161202026356e-05
1.663823070430226e-05
1.4877912462907261e-05
2.021848058575415e-05
1.8673246586331516e-05
1.4065605341784249e-05
1.637240904983628e-05
1.3551195479521994e-05
1.1147215445816983e-05
1.367884078717907e-05
5.181141204957385e-06
-4.6705558816029225e-06
-1.1514823427205556e-05
-1.7137521467702754e-05
-2.0240111780367442e-05
-2.104921918544278e-05
-1.7539934560772963e-05
-1.4515972907247487e-05
-1.7495593510830076e-05
-1.7617057437746553e-05
-1.575508122186875e-05
-1.4137745552034175e-05
-7.893849669926567e-06
-1.9012517213923275e-06
-7.610866532559157e-06
-8.054738600549172e-06
-6.368208460116875e-06
-8.548002256247855e-06
-6.698067295474175e-06
-8.894888310351234e-06
-1.0648937404766912e-05
-6.363463626257726e-06
-1.895957666420145e-07
2.7048463380197063e-07
-1.457906932955666e-06
-3.2518971693207277e-06
-3.1301763101510005e-06
-2.54975714142347e-06
8.043620027819998e-07
1.9250414879934397e-06
2.6093778160429792e-06
-6.396331855285098e-07
-2.532710368541302e-06
-7.664532859052997e-06
-1.2145254459028365e-05
-3.5202074286644347e-06
3.3642193102423334e-06
3.1684595569458907e-06
5.005154434911674e-06
3.8751554711780045e-06
1.9281991399111575e-06
2.726065986280446e-06
9.536558991385391e-07
-3.79594109745085e-06
-9.090602134165238e-06
-7.672325864405138e-06
5.710113555323915e-07
-1.0902463145612273e-06
-9.058234923031705e-06
-1.3400081911640882e-05
-1.8516164800530532e-05
-1.4141359201857995e-05
-8.442855232715374e-07
3.1858885449764784e-06
1.5708251339674462e-06
2.124146931237192e-06
-2.4805345901768305e-06
-4.064180757268332e-06
7.3716682891245e-07
8.58858356878045e-07
2.180977276111662e-06
7.490908615181979e-06
1.4440746781474445e-05
2.3044520730763907e-05
2.2951901542000996e-05
1.8677676052902825e-05
1.3349741948331939e-05
6.6232993276571506e-06
9.372400427309913e-06
1.4496008020614681e-05
1.3530019373320101e-05
1.0763337400021555e-05
5.357684358386905e-07
-1.2922784662805498e-05
-2.3378094169856922e-05
-2.6948090294354188e-05
-2.0484990500335698e-05
-1.5238154787766689e-05
-5.3634729511031765e-06
-3.2586485758656636e-06
-6.763484520888596e-06
-9.880980201160128e-06
-1.793588046439254e-05
-1.6992756286526856e-05
-1.600064331341855e-05
-1.973798623566836e-05
-1.487439021730097e-05
-1.4544469308930275e-05
-1.2314367154431238e-05
-7.549004408247129e-06
-3.5180485156161012e-06
-2.8036504318151856e-07
5.345999397832202e-06
2.1289822825565352e-05
4.618218508767313e-05
7.752134831662261e-05
0.00011139129424009298
0.00012097550643375143
0.00010185783128235926
5.616071530312183e-05
-7.809236763023364e-06
-6.195218441007455e-05
-9.639188544952049e-05
-0.00010118450256868528
-8.967098790435557e-05
-6.983348873745854e-05
-5.07596171246405e-05
-4.015542458546406e-05
-2.920609119883011e-05
-1.734724310153979e-05
-1.0588256373011973e-05
-2.46645140578039e-06
-9.268351277569309e-07
-3.6203074387231027e-06
-5.211396683080238e-06
-3.913769091923314e-06
1.035009177030588e-06
-1.9521462490956765e-07
4.961802119396452e-06
5.589386091742199e-06
3.1824536108615575e-06
4.889803449259489e-06
2.9195044817242888e-06
5.512808911589673e-06
3.2444703492728877e-06
1.476066017858102e-06
9.34833224164322e-07
-3.374674520273402e-06
-2.810607838910073e-06
-1.631900659049279e-06
-1.7105841152442736e-06
-2.950090106423886e-06
-7.391088729491457e-06
-9.275628144678194e-06
-4.003223693871405e-06
1.2381337910483126e-07
3.657861611827684e-06
5.355578764465463e-06
6.995502189965919e-06
3.1213817237585317e-06
1.4298775568022393e-06
1.0327860991310445e-05
1.929209804529819e-05
2.8312482641013048e-05
3.652724569747079e-05
3.978721065323043e-05
3.500595494188019e-05
2.8272351300984155e-05
2.5473718437751813e-05
2.376798431669158e-05
2.249681153898564e-05
2.2529022999151493e-05
2.0559183440127526e-05
2.130846974068845e-05
1.6722239593036647e-05
1.4430628425543546e-05
1.952893796897115e-05
2.0404875499480113e-05
1.7235523273484432e-05
1.1830650123556552e-05
3.7395177514554234e-06
-7.860010100557702e-07
-4.832769491258659e-07
2.931968538177898e-06
2.533965812290262e-06
-5.479078822645533e-06
-1.3640232964462484e-05
-1.7181985526804056e-05
-1.4392196817425429e-05
-1.1288338896520145e-05
-1.4038683730177581e-05
-1.7759028537511767e-05
-1.824217645207682e-05
-1.4912513165654673e-05
-1.2891354003841116e-05
-9.115101534007408e-06
-8.553591214877088e-06
-1.2646148206840735e-05
-1.1217751762160333e-05
-8.161081154867134e-06
-7.076154815877089e-06
-8.70887072323967e-06
-1.3590844559985271e-05
-1.494996422479744e-05
-1.1733284850379277e-05
-7.59582565024175e-06
5.667088771588169e-07
7.682938871766964e-06
4.328204113335232e-06
-1.4896764923832961e-06
-5.1057834298262605e-06
-6.450538762692304e-06
-4.248954155627871e-06
-2.746915811258077e-06
-2.510553713364061e-06
4.256498868926428e-07
1.2617477977983071e-06
3.6054110523764393e-06
4.8985825742420275e-06
2.324974502698751e-06
2.251243813589099e-06
3.183151761732006e-06
2.641695573402103e-08
-2.890044925152324e-06
-8.929378395805543e-06
-1.1668855108837306e-05
-8.712204135008506e-06
-5.743570454797009e-06
-1.8819107481249375e-06
2.704719804569322e-06
7.209882824099623e-07
-3.0583640864279005e-06
-3.5040976626987685e-06
-5.4593592722085305e-06
-9.813445217332628e-06
-1.3495456300915976e-05
-1.3003908975406375e-05
-1.1269596711827035e-05
-6.1975041489858995e-06
1.5741429706395138e-06
6.231133625078655e-06
4.5300412239157595e-06
6.520283591271436e-06
9.328145210929506e-06
4.1750666923690005e-06
9.380302344652591e-06
1.8147507717003464e-05
1.8668959455681033e-05
2.3514266217716795e-05
2.4868058176252816e-05
1.9416650729908724e-05
1.4347440469464345e-05
1.1569877756301139e-05
7.80083416884736e-06
-2.719045937737974e-06
-7.532452059422212e-06
-9.843757766248018e-06
-1.4347945807458018e-05
-1.5399799508486467e-05
-1.851417994203075e-05
-3.063612496134738e-05
-3.6219137086845876e-05
-2.8432039357539907e-05
-2.1324857584659185e-05
-1.2789532092938316e-05
-9.607112474441237e-06
-1.583060486609611e-05
-1.8976885030497215e-05
-1.784884238986706e-05
-1.4558769862560439e-05
-6.197941615937452e-06
2.6898068199443514e-06
1.1516073072925792e-05
2.5509659394629125e-05
4.578571451929747e-05
7.447362895618426e-05
0.00010531853899919952
0.00012446941468624573
0.00011830443031612958
8.316149160236819e-05
2.369296817050781e-05
-3.1239746931532864e-05
-7.034259192550962e-05
-8.962299216364045e-05
-9.279567905196018e-05
-8.512478325428674e-05
-6.748482314833382e-05
-5.162867773833568e-05
-3.0236785164561297e-05
-1.4387301916940487e-05
-8.687523973094358e-06
-2.2393326162273297e-06
-4.042767272949277e-06
-8.444117497674597e-06
-8.910670203476911e-06
-1.1865932492582942e-05
-1.1278329225206107e-05
-7.4968586432078155e-06
-1.265512310055783e-06
-6.516748953799834e-07
4.148408038417983e-06
5.490028343047015e-06
-1.2841441048294655e-06
-2.094063461299811e-06
-2.810295768540527e-06
-1.6178381656573038e-06
2.2497398504128796e-06
-3.4227790592922247e-06
-1.283920539663086e-05
-2.161184329452226e-05
-2.262513226014562e-05
-1.0898593131969392e-05
-6.7844484874513e-06
1.8415260001347633e-06
7.277870167854417e-06
6.687832524221449e-06
1.3923338656240958e-05
1.872040752459725e-05
1.7281093960264116e-05
1.2740146758005721e-05
1.1385985203560267e-05
1.4196378174347046e-05
1.612562880382029e-05
2.1268418777253828e-05
2.2747426896785328e-05
1.9731991301341623e-05
1.8297109363629716e-05
1.4568476899512461e-05
1.4999624909250997e-05
2.3269543817150407e-05
2.5638550596340792e-05
2.5663823862487334e-05
2.5163019358842575e-05
2.2925098278392397e-05
2.3143974431150127e-05
2.3939649167914467e-05
2.207325871950161e-05
1.8415401541460596e-05
1.5695295019213518e-05
1.0015254474637914e-05
8.730565014047897e-06
1.4365700735652354e-06
-1.0763551358650147e-05
-1.1956825233028212e-05
-9.88547935776296e-06
-6.618036991312692e-06
2.6078498649440007e-07
-3.936287953365536e-06
-8.959398428487475e-06
-1.1413538800297829e-05
-1.2061729535162158e-05
-1.0408154025753902e-05
-1.3473527019414178e-05
-1.3204550555201422e-05
-1.39703115564771e-05
-1.4134423963696463e-05
-1.0269107633575913e-05
-1.2946174138050992e-05
-9.767043138708686e-06
-3.2222835670836503e-06
-3.845905098387448e-06
-5.837794105900684e-06
-1.0998559218933224e-05
-1.310634183937509e-05
-1.2932705203638761e-05
-9.232657475877204e-06
-3.076938696722209e-06
5.612776021735044e-08
3.5810930967272725e-06
3.805726009886712e-06
5.887338829779765e-07
-6.149990667836391e-07
-7.074001018736453e-06
-7.512213073823659e-06
-5.608069159279694e-06
-4.520519723882899e-06
-4.3061754695372656e-07
-1.1470255003587226e-06
-3.065136070290464e-06
-5.983046548863058e-06
-1.173272539745085e-05
-2.749694090198318e-06
3.6664565641331137e-06
6.34987270586862e-06
8.43336681555229e-06
3.7541509527727612e-06
-7.195569651230471e-07
-2.9727627861575456e-06
-3.862623202621762e-06
-6.146563123365922e-06
-8.636704365017067e-06
-5.733834086640854e-06
-1.6354450735889259e-06
-3.147589495711145e-07
2.1234535552139278e-06
2.3949269234435633e-09
-5.354727932171954e-06
-1.0725680681389349e-05
-1.1881083537446102e-05
-1.1667676631077484e-05
-8.669714475217916e-06
-5.890038096367789e-06
-1.239190055457584e-06
5.431626732388395e-06
1.1514775110299524e-05
1.8820464333657583e-05
2.0409194689818833e-05
1.5130803035390272e-05
1.3942376085651631e-05
1.6962311178758682e-05
1.9094910726380476e-05
1.718791816074372e-05
1.2879535347565252e-05
8.329956585839682e-06
2.384645995334722e-06
-1.486585915699834e-06
-4.002112973466865e-06
-1.1656503943413554e-05
-1.9539292679837672e-05
-2.148884573216492e-05
-2.1923211647845164e-05
-1.9482678794702224e-05
-1.9853237745337537e-05
-2.0449961198210076e-05
-1.910228195356467e-05
-2.057489371054544e-05
-2.3349844354925153e-05
-2.7030143883166602e-05
-2.768977276446094e-05
-2.4362909357478202e-05
-1.720335205845913e-05
-7.560915378235222e-06
2.9799209642078495e-06
1.720380316783121e-05
3.517045388434781e-05
5.7346453672835196e-05
8.673419199567434e-05
0.00011191230782969797
0.0001231006918942512
0.00011372715516699827
8.342500223079696e-05
2.955136892524024e-05
-2.511546483674465e-05
-6.598469985874544e-05
-9.169474424197688e-05
-9.230843841123715e-05
-7.590061886730837e-05
-5.641737584483053e-05
-3.925170778984466e-05
-3.150112752337009e-05
-2.896432329180243e-05
-2.4082804543468228e-05
-1.9834979752886284e-05
-1.3860584090252814e-05
-7.329966933866672e-06
-5.184177894079767e-06
-2.304539179931453e-06
1.0960118288494414e-06
1.3726621546084061e-06
2.8460923431339324e-06
-1.0519111128814984e-06
-4.594953793457535e-06
-3.1559895887767198e-06
-2.932351208073669e-06
-6.872615585962194e-06
-8.736322001823282e-06
-7.53074664316955e-06
-6.1600563867614255e-06
3.210860882063571e-06
9.679616937319224e-06
8.026345085454523e-06
4.763384140460403e-06
-5.0583674919835175e-06
-1.0023279060078494e-05
-8.151052611538034e-06
-6.587609050257015e-06
3.839739974864642e-06
8.15269197573798e-06
9.328527880825277e-06
1.4602151509279793e-05
1.4517146041725937e-05
1.282877121866477e-05
1.4333338754113356e-05
1.4413204553420655e-05
1.3878500567443552e-05
1.3842852695233887e-05
2.000701488213963e-05
2.186724975672405e-05
3.069855085868767e-05
3.3275576356572856e-05
2.523368618767563e-05
1.8467349491402274e-05
8.968443353296607e-06
6.8354681843629805e-06
1.1736252986338513e-05
1.5787476854711713e-05
2.01554080376809e-05
1.7369835063618666e-05
1.393963327700476e-05
1.1427286267462478e-05
5.4430403224614565e-06
2.956980665658193e-06
1.814164534152951e-07
-5.845960686201579e-06
-8.43682175855065e-06
-9.275289130528108e-06
-1.0896374305957579e-05
-1.4253648600970337e-05
-1.419228931354155e-05
-1.0902430062742496e-05
-1.5399842368424288e-05
-1.5161282135522924e-05
-1.1852659440592106e-05
-1.1478849387458467e-05
-6.645780104008736e-06
-3.904128561771358e-06
-5.298966357258905e-06
-6.172109578983509e-06
-9.552383517075214e-06
-1.1236377758905292e-05
-1.2711936278719804e-05
-1.233516604770557e-05
-1.034317244830163e-05
-1.018223986193334e-05
-8.648261541566171e-06
-6.371706149366219e-06
-6.805724183323036e-06
-3.632210336945718e-06
5.807006687064131e-06
9.341455552203115e-06
6.4542743984929984e-06
6.07687070441898e-07
-7.81522771831078e-06
-1.1542222068783303e-05
-7.781798103678739e-06
2.245890300400788e-06
7.112850994417386e-06
3.451392103670514e-06
2.8595310368473292e-06
8.205820449802559e-07
-2.8236934213055065e-07
2.5226746629414265e-06
1.4807372963332455e-06
7.343646757362876e-08
1.5962475572450785e-06
-5.239576239546295e-08
4.856673854192195e-06
6.277068337112723e-06
1.6626470369374147e-06
-1.0605045872580376e-06
-9.878509217742248e-06
-1.2474808386286895e-05
-8.820251878205454e-06
-7.5286727678758325e-06
-7.597562557748461e-06
-1.1281878755653452e-05
-1.6301381947414484e-05
-1.350207605810283e-05
-5.47933893813024e-06
3.6111474628341966e-06
7.50857145703776e-06
5.7087733011940145e-06
3.6656464317275095e-06
7.679241889491095e-06
1.0793777050821518e-05
1.5949219573485607e-05
1.936917703915242e-05
1.4765039281883219e-05
1.5084394590303418e-05
1.723541254250449e-05
1.3167493989385548e-05
9.43628299410193e-06
6.175978910505364e-06
2.3030986540106824e-07
-2.791948872982175e-06
-2.7410623033574666e-06
-8.715023227523488e-06
-2.042588471340423e-05
-2.6436222583470226e-05
-2.5842270474640827e-05
-2.4907211241043115e-05
-2.0064183786416834e-05
-1.3949946264801838e-05
-1.3086033504805528e-05
-1.4266218954617216e-05
-1.6053113881753234e-05
-2.216952543676598e-05
-3.027990885584586e-05
-2.8535938213281042e-05
-1.9620053421931516e-05
-1.0466043590895424e-05
-4.248589789312973e-06
2.2541895532413037e-06
7.903111509222072e-06
2.005265548632451e-05
4.4061215476176585e-05
7.677662483729364e-05
0.00011475773681013379
0.00013712990903513855
0.00013449808648147155
0.00010868830520394113
5.633911587210605e-05
-7.244350626933738e-06
-5.403691375249764e-05
-8.314372314544016e-05
-9.205433775605343e-05
-8.183051158994203e-05
-6.328504628072551e-05
-4.458311354937905e-05
-3.2058405622592545e-05
-2.3970830397956888e-05
-1.4643386748502962e-05
-1.0453763820805761e-05
-6.418226917048742e-06
-5.278697358335194e-06
-1.0336548825762293e-05
-8.509358849551063e-06
-6.3125627320914646e-06
-3.0933128982724156e-06
-4.19874481849547e-07
-3.904908453478129e-06
-4.743081603919563e-06
-8.174109552783193e-06
-6.582630135198997e-06
-5.750173613705556e-06
-1.0195312029281922e-05
-5.452556251839269e-06
-4.904863772026147e-06
-1.9212121742384625e-06
1.4483546237897826e-06
-2.6395432541903574e-06
-1.1664767953334376e-05
-1.3091556752442557e-05
-4.96914174163976e-06
2.530221308916225e-06
1.2167108707217267e-05
1.4699386838401551e-05
6.7690633613892714e-06
3.1047577522258507e-06
4.34739797583461e-06
5.403752652455296e-06
1.1014408755727345e-05
1.5229291193463723e-05
1.5228922848109505e-05
1.6654223827572423e-05
1.4322568858915474e-05
9.201873012898432e-06
9.911278311847127e-06
1.4807437878516794e-05
2.2264977928898588e-05
3.0128276193863712e-05
3.410307886042574e-05
2.883201716485928e-05
2.1686989498448384e-05
1.9733748672479123e-05
1.5995446574379457e-05
1.7277379924962588e-05
1.8485341797713772e-05
1.3614156728181115e-05
6.196211188580492e-06
-6.722103762513143e-07
-3.6276791206546477e-06
-3.6445726436795667e-06
2.4160582370313932e-06
-3.4792138876582612e-06
-1.090821706384304e-05
-1.0581377296148275e-05
-1.3596951930594514e-05
-1.3144752301741391e-05
-8.822333597890974e-06
-3.2194191135204164e-06
-2.6190388098257245e-06
-4.5152227130529354e-06
-1.7020008726831293e-06
-6.388123210854246e-06
-1.291302999106847e-05
-4.897564963357581e-06
-5.47578872556187e-06
-1.0439010338814114e-05
-1.1223967248952249e-05
-1.2114680998820404e-05
-1.254264498129487e-05
-1.3756542898590851e-05
-8.099376032077998e-06
-5.072315047982556e-06
-3.1500309205512167e-06
5.0093433401343646e-06
-7.239899559863261e-07
-3.548688596310967e-06
-2.864026214410842e-06
-5.043382316216594e-06
-1.413664108440571e-06
2.0451832369872136e-06
2.28630460696877e-06
-2.845359858838492e-07
-3.00237104511325e-06
-2.9823039540133323e-06
-7.300667107301706e-06
-9.935590583154408e-06
-9.498115446149313e-06
-4.451337190403137e-06
-6.315556220215512e-07
2.3955839196787565e-06
6.042115501259104e-06
3.046484835067531e-06
3.391456857571029e-07
-5.580861852649832e-07
-1.9025308120035334e-06
-6.675087661278667e-06
-8.690224717611272e-06
-9.858354246716772e-06
-7.350475812017976e-06
-5.189607577449351e-06
-4.723207553070097e-06
-2.903368795159622e-06
-4.812904649043048e-06
-5.480629170051543e-06
-3.5374412163946545e-06
2.1277719497447833e-07
-8.969319651441765e-07
-1.7111244687839644e-06
-2.448566647217376e-07
1.0076931857838645e-06
6.233084604900796e-06
1.3117764979142521e-05
1.6606703752586327e-05
1.951802221356047e-05
1.6578453710280883e-05
1.6716847881070862e-05
2.050271973530471e-05
1.971187896288029e-05
1.5055873973324196e-05
2.175271333726414e-06
-3.5129976367898053e-06
-3.3177140039697406e-06
-2.71999169854098e-06
4.6856990820742794e-06
-1.9285206462882343e-06
-1.237636683981691e-05
-1.9311875803396106e-05
-2.561494295605371e-05
-2.4667210595907818e-05
-2.4909739977374556e-05
-2.561565247560793e-05
-2.3893934212537715e-05
-2.6052329303638544e-05
-2.474270570473891e-05
-2.4782852506177733e-05
-2.587076801319199e-05
-1.9149310105603945e-05
-1.3435144637696794e-05
-4.426700343174161e-06
5.486945156008005e-07
9.827655844674155e-06
2.5388114863744704e-05
5.018417755309201e-05
8.197387899144815e-05
0.0001098897839710844
0.0001254504707048909
0.00011506067687605537
8.240618058152904e-05
3.041305171791464e-05
-2.997252556724561e-05
-6.902330642333254e-05
-8.906288678645069e-05
-9.077142135538452e-05
-7.551021690233028e-05
-5.7682850638229866e-05
-3.753040846277145e-05
-2.087409961859521e-05
-1.3146255355422909e-05
-9.389044635099708e-06
-9.405619948665844e-06
-1.3229873502496048e-05
-1.1613769288487674e-05
-9.930677947522781e-06
-1.0386384929006454e-05
-1.4215904798220436e-05
-1.0974650194839342e-05
-5.095636083751742e-06
-3.6280287076806417e-06
1.7283704210058204e-06
6.602310804737499e-07
-1.386719077345333e-06
1.4206533478500205e-06
-2.624159378683544e-07
1.8535604340286227e-07
-5.652241611642239e-06
-1.2360349501250312e-05
-1.043159068103705e-05
-7.1395620580005925e-06
1.999253640860843e-06
8.953763426688965e-06
6.615505867557658e-06
1.900723418657435e-06
-3.0115215849946253e-06
-6.550121838699852e-06
-2.7716840804714593e-06
8.322617077283212e-06
1.5628616438334575e-05
1.6382651210733457e-05
1.887353448637441e-05
1.5875462963776954e-05
1.4002974921822897e-05
1.2954501016793074e-05
1.2994676353628165e-05
2.0849147404078394e-05
2.4605679072919884e-05
2.300997471138544e-05
2.5720890221236914e-05
1.6409443901466148e-05
1.3424676353679388e-05
2.019973942424258e-05
2.1204249605943915e-05
2.2984118686508737e-05
2.3612390577909537e-05
2.40022765183312e-05
2.297565140452207e-05
1.988860378787649e-05
1.3252127246232703e-05
3.321156555102789e-06
6.910499905643519e-08
-2.0204215616104193e-06
-5.733380362471507e-06
-9.39915435083094e-06
-1.673665394719137e-05
-1.8061245100398082e-05
-1.3641459304380987e-05
-8.761820140534837e-06
-6.22249854131951e-06
-2.8304407351242844e-06
-5.317647264746483e-06
-8.522590178472456e-06
-5.006960805076233e-06
-5.490417265718861e-06
-1.1258394465585297e-05
-1.0559515658314922e-05
-1.331132546056324e-05
-1.724057403862389e-05
-1.0348781870561652e-05
-1.1392419310141122e-06
-3.2272240559905185e-06
-4.240536554789287e-06
-3.0899764169589616e-06
-2.3451594870493864e-06
-2.50235302701185e-06
-3.5945851095675607e-06
-4.44393867837789e-06
-4.558719638225739e-06
-4.799797011401097e-06
-2.473201561770111e-06
-7.490375537599903e-07
-1.0904643659159774e-06
-2.6253979967805208e-06
-3.7329547240005923e-06
-1.1465692750789458e-06
-3.0653598059871e-07
2.741823436736013e-06
9.741456210576871e-06
4.873114448855631e-06
-4.21703293795872e-06
-5.758906127084629e-06
-7.85085990173684e-06
-6.596134539904597e-06
-6.634093097090954e-07
3.768167971429648e-06
9.93427420326043e-07
-3.0412140858970815e-06
-4.0923498545453185e-06
-1.0505611044209218e-05
-1.4266955645325652e-05
-9.002032811622485e-06
-4.918495847050508e-06
-1.111948677134933e-06
4.5548233629233437e-07
-9.941127245838288e-07
-3.955214765483106e-06
-4.290530910111556e-06
-6.871330242574913e-07
5.709815695809084e-07
2.4387903749811812e-06
-6.52359062769392e-07
-6.265086426537891e-06
-1.3451242580231337e-05
-1.5648689441150054e-05
-5.514561166819476e-06
5.512833809007134e-06
1.9856045469168748e-05
2.694469117159315e-05
2.5993567419391184e-05
2.151403168682009e-05
2.027447908403701e-05
2.165441969737003e-05
1.5321297610171314e-05
1.1523460216267267e-05
4.978133347322e-06
-5.815167810396815e-06
-1.2805517485503515e-05
-1.8758179066935554e-05
-2.2682739881929592e-05
-2.120864576227177e-05
-1.9387563042982947e-05
-1.5820112480469106e-05
-1.1302265988888394e-05
-9.061556170308904e-06
-8.146304594447429e-06
-7.4202099540343625e-06
-1.2611044553523243e-05
-1.9927390439988812e-05
-2.44936312583377e-05
-2.67181546860229e-05
-2.911626279455959e-05
-2.349911994770082e-05
-1.895443313060241e-05
-1.6442772903246805e-05
-1.4564895991497906e-06
1.91092102568291e-05
4.507056826241751e-05
8.521833467511897e-05
0.0001222443034976095
0.00014094463119818101
0.00013688515923604427
9.999726671594544e-05
3.93767520563415e-05
-2.2470959152087744e-05
-6.537943704643112e-05
-8.721581571080605e-05
-9.286495617288892e-05
-8.326920715262531e-05
-6.635716772507294e-05
-4.944483646340814e-05
-3.355164642471209e-05
-2.7052707991970237e-05
-2.347173881389608e-05
-2.0718177552225825e-05
-1.6877829807526723e-05
-9.986113354898407e-06
-1.1836245903396048e-06
4.607268920153729e-06
4.739870973935467e-06
8.191267966140003e-06
3.689058303280035e-07
-9.13280280201434e-06
-1.225194614562497e-05
-1.2426270473042678e-05
-6.349102136482543e-06
-2.1139710497664055e-06
-1.3123692497174488e-06
-3.788319418163155e-07
-2.616693564050365e-07
2.312026367690123e-06
2.974504695885116e-07
-5.976482952974038e-07
-4.294905238566571e-06
-9.118948810282745e-06
-9.312501674685336e-06
-5.319684078131104e-06
-1.0668777576938737e-06
3.5704534866454196e-06
9.808889217310934e-06
9.06804064015887e-06
4.570501914713532e-06
8.967305575424689e-06
1.4687928569401265e-05
2.0369449657664518e-05
2.3981922822713386e-05
1.7212621287399088e-05
1.783357163276378e-05
1.854185848060297e-05
1.798806636088557e-05
2.0561587461997988e-05
2.3577044999001373e-05
2.1634955714944226e-05
2.6742470822682662e-05
3.335202393373038e-05
3.262505833845353e-05
2.9312243441381725e-05
2.232698307125247e-05
1.6431466860922228e-05
1.2673119954342837e-05
5.552560537580575e-06
6.269706318562385e-06
1.001396776700858e-05
7.075154258018301e-06
5.3236030908010434e-06
6.834983423686936e-07
-6.9064244598848745e-06
-8.772064688855608e-06
-7.181274327194842e-06
-9.314473800259293e-06
-6.847323561487428e-06
-5.421339437816641e-06
-6.42462043742853e-06
-6.4370900645371876e-06
-1.0139077517123951e-05
-1.2008511248495779e-05
-1.0838631055776204e-05
-1.2159479297224607e-05
-1.1981085208390141e-05
-1.6787983213362168e-05
-2.0189120505165192e-05
-1.6108250520119327e-05
-1.2107151519558101e-05
-9.577676792105194e-06
-5.834995590703329e-06
-1.034363845064945e-05
-1.2187594506940513e-05
-4.296017550586839e-06
-1.1412196272431174e-06
3.117386313533643e-07
2.9083305435051443e-06
-1.7637142946114182e-06
-5.343761927179003e-06
-9.466210258324281e-06
-3.4694885471253656e-06
5.974105533823604e-06
8.39022402487899e-06
1.6637403973618348e-05
1.1231694088564836e-05
2.8719995270876097e-06
1.1211325272597605e-06
-2.471914285706589e-06
-8.860400953381031e-06
-1.0920305271611142e-05
-1.6556383116039797e-05
-1.7235332165910222e-05
5.162667662261811e-06
8.951722634265025e-06
-9.979924016079167e-07
-6.976466693231487e-07
3.581497139748535e-06
2.8506935905170394e-06
7.99827910213935e-06
1.1606084626691882e-05
4.21186598487111e-06
-9.882132872007787e-07
-4.5094959659763845e-06
-6.8583898382712505e-06
-5.99819350100006e-06
-8.595288818469271e-06
-1.168818891983392e-05
-1.2028661330987234e-05
-1.4317174873212934e-05
-1.3759579360339558e-05
-2.850230202966486e-06
5.577134174927778e-06
1.4943230326025514e-05
2.4692808779036568e-05
2.9435676538014377e-05
2.4696234390830796e-05
2.0630314224945323e-05
2.148559531178762e-05
2.0578660723913345e-05
2.057587710169173e-05
1.188964961329475e-05
1.351672608507215e-06
-4.4941563146494445e-06
-1.4469535926764365e-05
-1.2767977636940486e-05
-1.1574933637348295e-05
-1.5284792311831552e-05
-1.4260171383284614e-05
-1.651930676871416e-05
-1.872232951427577e-05
-2.116994301104569e-05
-2.0526633534245775e-05
-2.220930707608204e-05
-2.157476797037816e-05
-1.513139045528078e-05
-1.3531530726140772e-05
-9.601640272194345e-06
-9.803920875128824e-06
-1.478525291531696e-05
-1.1659883625725342e-05
-8.635979497739754e-06
-2.7050562039221404e-06
1.0800018344525597e-05
2.7041635576097178e-05
5.337212689937587e-05
8.548881476144743e-05
0.00011602861104620388
0.0001269678338076119
0.00010929168763595953
6.75319128049523e-05
5.147467390997917e-06
-5.5710943001940905e-05
-9.04971816453326e-05
-0.00010386390351868613
-0.00010338427148326446
-8.5430305830414e-05
-5.980812420602888e-05
-4.480494919789635e-05
-2.101152028899378e-05
-5.567784228333039e-06
-2.7357235694580595e-06
3.883755425704294e-06
5.31314412910433e-06
1.1917038591491291e-06
-5.960205271549057e-07
-7.953845170050045e-06
-1.4668116932625708e-05
-1.4992535852798028e-05
-1.748116085309448e-05
-1.439981122075551e-05
-2.969646743622434e-06
5.810787797599914e-07
4.408145287015941e-06
6.437069146159047e-06
-2.003833287744783e-06
-6.196343065312249e-06
-2.061911573036923e-06
-6.804223176004598e-07
2.194054445681104e-06
7.179962267400697e-06
2.5177715770041686e-06
-4.973916816197743e-06
-8.021120834200701e-06
-7.76631918597559e-06
-4.905541345578968e-06
1.5963504438332166e-06
7.987112326190982e-06
7.102916470103082e-06
6.171816266942187e-07
5.001003955840133e-06
1.0308117339263845e-05
1.3982277778268326e-05
2.3880303956502758e-05
2.576203439730307e-05
2.4849520627867605e-05
2.6306644940632395e-05
2.747932535385189e-05
2.901297875723685e-05
2.619684414639778e-05
2.450055512781546e-05
2.4523926185793243e-05
2.540985917676153e-05
2.607455814995774e-05
2.7889642524314695e-05
2.6054465820379846e-05
2.2651058998235385e-05
2.0326294134065392e-05
1.6107868304970907e-05
1.3093596635371796e-05
1.230800012308464e-05
1.0563482305769867e-05
5.064254423814418e-06
-3.829291017609648e-06
-9.966156881091592e-06
-1.0757167387964728e-05
-1.359797158784204e-05
-9.8216897868042e-06
-7.148683380364673e-06
-1.4301722444542975e-05
-1.961110592674231e-05
-2.1837454823980806e-05
-2.4435081058982178e-05
-1.9486154542391887e-05
-1.4751743037777487e-05
-1.7016974311445665e-05
-1.769821574271191e-05
-1.8234799767924414e-05
-1.560513862841617e-05
-1.4683806966786506e-05
-1.2901603213322232e-05
-1.025023334477737e-05
-7.859255561015743e-06
-4.377098662189383e-06
-2.4291978206747444e-06
-2.7592145670496393e-06
-4.75455181003781e-06
-8.123419888761418e-06
-7.253842227328278e-06
-5.310529218149895e-06
3.5742903037316864e-07
5.973270845061052e-06
5.858039116901637e-06
2.3086373630576418e-06
1.0548266118348693e-06
6.387555231412989e-07
-3.919018581655109e-06
-8.28207555514382e-06
-8.579760788052226e-06
-1.2092104611838295e-05
-7.013427079982648e-06
3.388621962585603e-06
3.132859660581744e-06
-2.6861089281737804e-06
-1.1770948162848072e-05
-1.607739147857501e-05
-1.6543643255317875e-05
-9.704530498311215e-06
7.987116532603977e-07
3.5883581404050346e-06
2.3305368586079567e-06
1.6674675862304866e-06
-3.947606501242262e-06
-5.970575898572861e-06
-2.406967269052984e-06
-2.4115468022500863e-06
6.47355591354426e-08
4.5050330754747847e-07
-6.322031254057947e-06
-9.093912581192853e-06
-1.0044081477644795e-05
-1.4714416579408862e-05
-1.7769290593605547e-05
-1.5771179505463806e-05
-1.172655947812018e-05
-4.143925821153971e-06
5.234124955677544e-06
7.144684104787302e-06
8.374667459065677e-06
7.462593202944845e-06
1.4749580714124022e-05
1.6804126403258124e-05
2.0075890461157542e-05
1.941776815783669e-05
1.2864326436101692e-05
1.0441370591252053e-05
6.793417355765996e-06
2.4413982373516774e-06
-5.014776775169594e-06
-1.4785363418923225e-05
-2.1133286281838082e-05
-2.5552671331752208e-05
-2.2495521534438012e-05
-1.452715594041365e-05
-1.4008818084221275e-05
-1.2894441283606284e-05
-1.2003413303318666e-05
-1.278499667023425e-05
-9.867123139883915e-06
-1.0448160196574463e-05
-1.4290688341134228e-05
-2.1990544155414682e-05
-2.3334820639320242e-05
-1.4420419915950333e-05
-7.180417583185772e-06
-1.4128446537142736e-06
-1.2417598327374435e-06
5.592730644821131e-06
2.2238444785216416e-05
4.640938550437568e-05
8.072093748978659e-05
0.00011400443258935411
0.0001219914795456134
0.00010106121851549688
5.8133563925366616e-05
-6.207871820151922e-06
-6.75058178103427e-05
-0.00010427163135773299
-0.00011599294452935283
-0.00010471510461229627
-8.413283524077997e-05
-6.299133440279547e-05
-4.425681356678979e-05
-2.864899624910322e-05
-1.211524204336456e-05
2.676796384548652e-07
7.656396519450936e-06
8.887239914656675e-06
1.437580522178905e-06
-9.40892891776457e-06
-1.1225438242945529e-05
-1.3204057722759899e-05
-1.565637194289593e-05
-7.144189339669538e-06
-9.953449762178934e-07
6.756638413207838e-07
2.21677521494712e-06
-9.310366522186087e-07
-3.1744882562634302e-06
-4.904301363239938e-06
-3.365044904057868e-06
-5.276545607557637e-06
-6.773260111003765e-06
-9.356158102491463e-06
-9.617094519853708e-06
-3.3793661486924975e-06
-9.984560165321454e-07
1.7441863064959762e-06
4.039702503177978e-06
1.9679979459397146e-06
2.571345703472616e-06
2.234836188108602e-06
3.16986870529945e-06
1.0366193805566581e-05
9.537889127386734e-06
8.777790071690106e-06
1.1011553056050616e-05
1.0030663815996377e-05
1.4171624911796243e-05
2.1691070742235752e-05
2.7346366437086544e-05
2.625971319503151e-05
2.3382614131151058e-05
2.205719658832095e-05
2.0248683767931652e-05
2.3318756689150177e-05
2.8463733315220452e-05
3.107896714027447e-05
3.016512300746399e-05
2.636446049564256e-05
2.3057636667545012e-05
1.738672438023059e-05
1.3977112530483282e-05
1.1996887792520283e-05
1.0516437896512798e-05
1.0350768548050837e-05
5.8725599956233054e-06
-2.764047508208023e-06
-8.8657585592955e-06
-9.899781503008853e-06
-1.410298887094541e-05
-1.2231942605467339e-05
-1.0123046990884177e-05
-1.7942174736162997e-05
-2.244082645574963e-05
-1.948377075677854e-05
-1.555645712869591e-05
-9.664593790148501e-06
-6.125497066022945e-06
-9.812663279262779e-06
-7.936325346236117e-06
-8.430874117948406e-06
-8.270818170785788e-06
-4.701424472841609e-06
-7.625654120602121e-06
-6.567958735104185e-06
-4.066430847160518e-06
-2.2587528292206116e-08
4.60936007584678e-06
6.773273412363778e-06
9.639978770792368e-06
6.857703397145087e-06
3.13051714329049e-06
6.482065600721398e-06
1.0816657777468208e-05
1.6602695382061938e-05
1.828161236971937e-05
1.892952514026547e-05
1.5172905023064232e-05
1.1056864650527132e-05
1.4859360703667335e-05
1.856281960499473e-05
2.1382252157309267e-05
2.237541366412188e-05
2.188666508118331e-05
1.9023536196982604e-05
1.00092324828438e-05
5.434567356132902e-06
1.0485018719919026e-07
-1.0263368267260375e-05
-1.0540238918110845e-05
-4.647746209229808e-06
3.0511067734551034e-06
9.416747502655198e-06
8.679166057845578e-06
2.579146666903398e-06
-3.0913637374396785e-06
-8.751050131650118e-06
-1.3601292380371888e-05
-1.139621417678427e-05
-5.056304871686734e-06
-1.4956635823182296e-06
6.623150966333924e-06
4.6959453356976155e-06
-8.719061270312523e-06
-8.83055804479227e-06
-7.440168133143743e-06
-9.789052569431078e-06
-4.527947680799116e-06
-8.227738135246909e-07
3.0940316264604917e-06
9.848383911048586e-06
1.5406744068968692e-05
1.4636017567681847e-05
9.235001016349997e-06
7.7525637607323e-06
8.565945449845458e-06
1.1456544029897486e-05
1.1228652738282108e-05
9.619571187613474e-06
1.0336510285924305e-05
8.380942517760559e-06
7.631070957359043e-06
6.218793600965e-06
-1.3995003200761857e-06
-1.051187359735195e-05
-2.0583775835802953e-05
-2.724111777752114e-05
-3.0072828849370126e-05
-2.533493773171358e-05
-1.8127023167835432e-05
-1.132620423049957e-05
-1.0618188412081508e-05
-1.5736232853669208e-05
-2.1195166596044146e-05
-2.563258590271289e-05
-3.0185869832166645e-05
-2.5710505269671557e-05
-1.730684357426071e-05
-1.0392474564469012e-05
-2.5074456289075897e-06
1.355849917672458e-06
7.446050972248486e-06
2.398276990334125e-05
5.7555346302251564e-05
9.97459203517792e-05
0.0001273944859576659
0.00013221916958627844
0.00011423364412621595
6.891178679779841e-05
1.1483229400255368e-05
-3.73438870155951e-05
-7.832740539015504e-05
-0.00010167729851673357
-9.96299982034543e-05
-8.217325284931576e-05
-6.024587992214947e-05
-3.882835164858989e-05
-2.4311635456797376e-05
-1.749736622969067e-05
-1.2102830282856303e-05
-1.2724520161100372e-05
-1.43963247865031e-05
-1.49936499838077e-05
-1.312497875005647e-05
-6.026724122421001e-06
3.426610419410281e-06
8.363472602468391e-06
8.8186917537314e-06
8.805428478808608e-06
4.354761699687515e-06
-9.426162250747439e-07
-3.7038529399069375e-06
-8.068700026342412e-06
-1.1350810154908686e-05
-1.3884941154174157e-05
-1.361486556561431e-05
-5.9993971035510185e-06
-1.6997669263218995e-06
3.936517032343545e-07
6.467750040428655e-06
2.9475028213710175e-06
-5.617877036456775e-06
-9.717841749079525e-06
-9.279672894990654e-06
-4.393676590552786e-06
2.990356506415992e-06
1.0445949101267615e-05
1.3087115803500637e-05
1.1750981116165349e-05
1.50631090036768e-05
1.88313741773527e-05
1.56617364837075e-05
1.2902514527013409e-05
1.3216734032539534e-05
1.2203276355648995e-05
1.6161170378836687e-05
2.2212887415662408e-05
2.7017295110454143e-05
2.491645113877894e-05
2.418000781290175e-05
2.046835243163514e-05
1.1550675708349445e-05
1.071146618869534e-05
1.1885089065799548e-05
1.2559022707137046e-05
1.680279387983319e-05
1.542659015285608e-05
1.1984576872237085e-05
8.347998459612427e-06
6.8899797724952805e-06
6.312103209893394e-06
3.262283485128137e-06
5.32586113877187e-07
-4.775311936100479e-06
-1.0659319514161325e-05
-1.6068683862613398e-05
-1.939767776093504e-05
-1.8618807303028007e-05
-1.3850205164089857e-05
-5.253533345239703e-06
-2.4326070615643403e-06
-6.981676961004268e-06
-9.638593041927379e-06
-1.423489379703824e-05
-1.4246195860323496e-05
-1.3306614960129082e-05
-1.542579764191032e-05
-1.3012099429943191e-05
-1.0677809768822044e-05
-6.4745468080218416e-06
7.336044518524432e-07
6.892286137372139e-07
-2.417920995867462e-06
-5.558248744819139e-06
-6.1936874544699094e-06
-7.84507767548348e-06
-8.124097348627402e-06
-6.9177864361336106e-06
-9.700192777017946e-06
-6.027039830769354e-06
-1.400304313392553e-06
2.6757528530652053e-06
6.5517133407411166e-06
5.238515200289839e-06
-1.5802436337253312e-07
-4.091795858585101e-06
-9.834527645580238e-07
3.23774997923465e-06
5.93628203660046e-06
7.261551104420505e-06
2.83310851045826e-06
-2.263879537167668e-06
-6.20042862919945e-06
-6.808131047364441e-06
-5.87745773827919e-06
-5.895334084016213e-06
-4.770145324073383e-06
-1.8113349824488978e-06
-3.405759230190597e-06
-3.4819712482203613e-06
-3.521276425999531e-06
-4.451876293387613e-06
-5.50750689853885e-06
-4.5106504558134475e-06
1.6507061673110002e-06
5.281737003315357e-07
3.5463153835735284e-07
-3.314573405077681e-06
-1.1566388025130436e-05
-1.581643232384522e-05
-1.6043656728470523e-05
-1.1358205711076153e-05
-6.43100338493241e-06
-6.256611868593609e-07
8.158136552083306e-06
1.575475789650227e-05
2.1695728491977206e-05
2.1997836256559822e-05
2.2114779199000623e-05
1.9827986534437514e-05
1.759845906690316e-05
1.776458657332114e-05
1.3478240020958765e-05
7.536233511018509e-06
3.0565765882784035e-06
-5.341903602129605e-06
-1.3777767435385613e-05
-1.3196228337619686e-05
-1.1649332009255886e-05
-6.901869596731558e-06
-3.272660364928015e-06
-3.965995233556896e-06
-9.926254847414384e-06
-1.4501774671771273e-05
-1.4129620126368536e-05
-1.707835963316029e-05
-1.665300999320607e-05
-1.527659412658977e-05
-2.2223408109312004e-05
-2.9670063213416142e-05
-3.650432211088628e-05
-3.85236418196655e-05
-2.6844206672649307e-05
-1.6910843214645865e-05
-7.937283385217597e-06
3.1097240480448818e-06
1.37840003162637e-05
3.324201622945111e-05
6.66315416992802e-05
0.00010266430649608083
0.00012983246051589958
0.00013954447592823271
0.00012873784442035685
8.781830342741159e-05
2.8984846494495287e-05
-2.610324497709371e-05
-7.254457375438506e-05
-9.640058135573781e-05
-9.38793898512813e-05
-7.667284887702408e-05
-5.4089035870674707e-05
-3.87268833037524e-05
-2.806410611810861e-05
-2.113444156748301e-05
-1.793440640085464e-05
-1.2368607031021384e-05
-7.64335595704324e-06
-8.378381039619853e-06
-7.671278012821858e-06
-2.6496621785554453e-06
-2.9977712756590336e-06
6.337779723253334e-08
3.2428495160274906e-06
3.208863859072153e-06
2.5147206770270714e-06
1.1451193131506443e-06
6.145867246232228e-07
-2.8605478519239114e-06
-2.9576763154182117e-06
2.1847149582754355e-06
3.938661734537163e-06
5.797951871500118e-06
8.638882150080462e-06
6.947994506845134e-06
1.9017841168533778e-07
-2.3046038677421166e-06
2.3187216129372246e-06
1.1290052725598798e-05
1.7214995978065417e-05
1.748292663705797e-05
9.712624546409643e-06
4.291160394132021e-06
7.59812246542424e-06
1.261961767795583e-05
2.207870306847326e-05
2.584410560757533e-05
2.1362969619076466e-05
2.3421597120432125e-05
2.5280250497417e-05
2.4917574478422466e-05
2.9566406055892003e-05
3.001685854542302e-05
2.6560858486845973e-05
2.5070139827221283e-05
2.634102145293582e-05
2.730962876285048e-05
2.4026357664297393e-05
2.4707831585146778e-05
2.425751029022649e-05
1.773710914676485e-05
1.4151682762530982e-05
9.178640198115318e-06
5.246673708825256e-06
1.3043362514508772e-06
-2.249450631097716e-06
-7.542587809439283e-06
-8.308757855957083e-06
-3.7396634979813825e-06
-1.8170433122577379e-06
4.191550715404446e-06
1.5923700402709073e-06
-6.3106012930802535e-06
-4.858835950471985e-06
-4.4954803115615505e-06
-4.167351221440185e-06
-4.677962806454161e-06
-1.527076506135927e-05
-1.7749968264979543e-05
-1.7895842120196903e-05
-1.806621060040925e-05
-1.096291373414715e-05
-1.1831257211269985e-05
-1.0151641163247405e-05
-7.383624392787169e-06
-6.03218552441831e-06
-2.7941209737036843e-06
-2.144887389476935e-06
-1.4414339375434793e-06
-3.6022267977386946e-06
-8.174584991138545e-06
-1.1053474395339435e-05
-1.0813482390403806e-05
-8.70254962137551e-06
-9.166002314486832e-06
-6.372743200699915e-06
-5.555389179789927e-07
-1.1582851584535092e-06
3.6354070971356123e-06
6.420302952392376e-06
2.5237201271011145e-06
-9.321300922238152e-07
-2.6607140171108767e-06
-9.598802535037976e-07
2.1044991171947913e-06
5.012498718315328e-06
3.3475316740805283e-06
-3.534726033649349e-06
-1.0768577794806333e-05
-1.3449728385239723e-05
-9.93183368791506e-06
-7.663194764973014e-06
-5.2023746093254886e-06
-1.2321819440330728e-06
1.0686546829674626e-06
6.2891106153983856e-06
8.444735840384965e-06
5.2092860869379365e-06
1.5064448461998836e-06
-4.531341460278782e-06
-7.49534501665039e-06
-5.927175948272634e-06
-1.0901425184783875e-05
-1.1538414582901169e-05
-7.404014127132541e-06
-6.583270305782207e-06
-6.971030757085828e-06
-7.482135174541327e-06
-7.883718922130356e-06
-1.06800953290076e-05
3.415527771721827e-08
7.601822289871052e-06
7.89853891092207e-06
1.152547099536605e-05
1.2633061942324275e-05
1.4215699138730997e-05
1.728816471313621e-05
1.8494844312044734e-05
1.7574496382621874e-05
1.9639958736661356e-05
2.450823035360372e-05
2.4612523134237563e-05
2.6088143613378634e-05
2.2227807562558155e-05
1.621906642412796e-05
1.4704710906698892e-05
1.0200459882980795e-05
6.843346341156575e-06
4.252808935234498e-06
-1.1824379271274665e-06
-1.8383596056992246e-05
-4.507422227106872e-05
-6.751183047981613e-05
-7.480089709588356e-05
-6.499451194486028e-05
-4.1589580632717116e-05
-2.5219579242730106e-05
-1.6805808968456404e-05
-9.770060842129169e-06
-8.353268640348688e-06
-9.474348075855232e-06
-1.063857314420602e-05
-1.1537766908986669e-05
-8.008730446817935e-06
-4.3558015931921545e-06
1.6269656271106214e-06
3.0452506507572252e-06
-3.4433594464644557e-07
-1.4780973742745118e-06
-6.777373300792533e-06
-6.257892778194218e-06
-4.846104047828703e-06
-1.3914337841924862e-06
9.512119731880375e-07
-4.445329182090063e-06
-6.730264544785314e-06
-7.471779554180102e-06
-4.9120652647616225e-06
-1.6829866353873513e-06
-2.9216420216471306e-06
9.391293360749842e-07
4.365357426650007e-06
4.375177923066076e-06
1.0651885418155871e-05
1.2549309758469462e-05
7.218893983917951e-06
3.649321115517523e-06
5.043224859946349e-06
7.075329108374717e-06
9.196312134918116e-06
1.2217570656503085e-05
9.639441714170971e-06
8.037598036025884e-06
1.3230880426817748e-05
2.0905869973830704e-05
2.8176894261378038e-05
2.963999327221245e-05
2.7038058647121943e-05
2.4144737949427508e-05
2.016517009906238e-05
2.0481522142290487e-05
2.2829857698525302e-05
2.3028194618746056e-05
2.4091176101137535e-05
1.5337196941800357e-05
1.3535982816392789e-05
1.1447700103417446e-05
8.38126231883507e-06
8.775543392403051e-06
2.855413072211377e-06
-2.9552244313890697e-06
-1.0714192171690229e-05
-1.1630456810962642e-05
-6.317784027487505e-06
-8.729550131647557e-06
-7.958489959491999e-06
-7.5743812431028346e-06
-1.1376848647159932e-05
-1.4744995837645547e-05
-2.2149471533339238e-05
-2.1995311840328213e-05
-1.3397719612839865e-05
-4.438523546923534e-06
4.859613795815676e-06
3.6411942119229934e-06
-2.0067569721504697e-06
-5.373618137127778e-06
-2.2723887695974554e-06
-1.1969968909397721e-06
-6.788249265810009e-06
-1.0341247502765327e-05
-1.3804640843773086e-05
-1.5868374816818687e-05
-1.200891733788012e-05
-1.0654534207787947e-05
-1.292036699851451e-05
-7.470156674571626e-06
-7.116888127711718e-07
4.402859531182912e-06
4.2879147486019065e-06
4.983042458661657e-06
3.457040861576388e-06
6.475411282735877e-07
5.173414365344797e-06
5.628980943583883e-07
-3.92671381632681e-06
-4.1903748524418916e-06
-5.753395043939236e-06
-1.8136649941880023e-06
3.636944256868446e-07
-7.403596100630239e-07
-4.371264026303834e-06
-5.830145255458774e-06
-6.931713755875535e-06
-8.871296927281946e-06
-9.869928589978372e-07
6.059094403099152e-06
8.146856089297216e-06
9.761277397046797e-06
5.856623147337814e-06
5.215622422838351e-07
-1.7698430383461528e-06
-1.4869332289890735e-06
-3.438784688114538e-07
-4.141400381740823e-06
-7.034546001705166e-06
-6.463675958912063e-06
-5.234650870988844e-06
-4.511135443863168e-06
-3.902535581801203e-06
-4.4211998329046764e-06
-6.514475330732239e-06
-9.113117812376004e-06
-1.0248469720863795e-05
-9.14497240955825e-06
-6.532229804179224e-06
-4.146751848566055e-06
-4.092341896466678e-07
1.0892441650867113e-06
-1.6749753513067844e-06
-8.474430615024175e-07
4.086847980033781e-06
9.870717008197971e-06
1.700432289908349e-05
1.9693699073286552e-05
1.9382937011869217e-05
1.9468242271614145e-05
1.6175356108760752e-05
1.5637359979336907e-05
1.368637083487556e-05
1.1236313866902492e-05
4.893027494290436e-06
3.351672035023512e-06
2.172885160689475e-07
-7.434950589413347e-06
-1.0106007380272786e-05
-1.4937109426682582e-05
-1.592788999005279e-05
-1.1457130312919617e-05
-1.3547907428801409e-05
-1.5845906432332413e-05
-2.2794538836024003e-05
-2.5463373958700686e-05
-2.373801169142098e-05
-2.175675160742685e-05
-1.6668631246830046e-05
-2.0848112512794614e-05
-2.4436507715108746e-05
-1.9976808403043833e-05
-1.8908014567387e-05
-2.089846680064511e-05
-1.2208787097733875e-05
1.030194766826753e-06
2.1463263124132936e-05
5.352093376131961e-05
8.735763958611642e-05
0.00011856004550736543
0.00013398595706348715
0.00012931538356042438
9.691773561826267e-05
4.181030567451671e-05
-1.4006993410475843e-05
-6.0513085031743685e-05
-8.350560972303356e-05
-9.065841129540786e-05
-8.079317603915115e-05
-5.9214875363977626e-05
-4.4534104972626665e-05
-3.0232054996304214e-05
-1.9732563146135362e-05
-1.2310938700466068e-05
-9.36103481308237e-06
-1.1467421472843853e-05
-1.5174660802586004e-05
-2.0141047230026743e-05
-2.1119438315508887e-05
-1.826678305860696e-05
-1.0598188509902684e-05
-1.7888370393848163e-06
6.486970960395411e-09
4.251961172485608e-06
3.558493517630268e-06
1.729794234961446e-06
8.651255711811245e-07
-2.091630790346244e-06
-3.669985744636506e-06
-7.425914873238071e-06
-6.6995947918258025e-06
-5.367780886444962e-06
-7.503497727157082e-06
-3.983654551120708e-06
-4.295683993404964e-06
-4.198805754640489e-06
9.628815860196482e-07
2.1779320604764507e-06
7.408032047351298e-06
7.609189424329088e-06
6.1461061022782815e-06
1.0570376502982981e-05
1.0389324984316772e-05
1.1103509336862771e-05
9.533199659017555e-06
5.835536285303533e-06
3.5939640383730875e-06
8.967236340140516e-06
2.1000749029553845e-05
2.6397282567813818e-05
2.8734365400850947e-05
2.540120772209775e-05
2.2021817926543008e-05
2.4112375740514835e-05
2.7076292781202937e-05
2.5444864377277554e-05
1.9776546650973614e-05
1.5905263921922597e-05
1.3580512586486293e-05
1.701576650248171e-05
1.8738285803010513e-05
1.3154979910723341e-05
5.010753056922113e-06
-8.484383897666703e-06
-1.796368712803087e-05
-1.5592334989378287e-05
-1.2979249504496693e-05
-6.169302309899649e-06
4.0921918298408855e-07
-3.7028107726655435e-06
-7.180264788075874e-06
-9.844786632129399e-06
-1.652434548304882e-05
-1.5565019566565752e-05
-1.1232064252908458e-05
-1.4660167721558537e-05
-1.733207807319559e-05
-2.4151900333890808e-05
-2.6305318101549346e-05
-1.9036104845326918e-05
-8.29503153454425e-06
-8.384012062379043e-07
-5.050820504948206e-06
-8.878250923771702e-06
-1.0296133382325934e-05
-7.749907354082097e-06
-3.3786997164497734e-06
-6.972586902520561e-06
-1.0331255111850624e-05
-1.2052247257088311e-05
-1.3261091908134404e-05
-7.82966822043818e-06
-6.052215439922293e-07
2.906788267864613e-07
-5.260655029815098e-06
-7.555728188890498e-06
-5.927974257247115e-06
-5.960027692708536e-06
1.7486235037722508e-06
9.577918604009028e-06
1.0071864267047204e-05
1.1644786695796938e-05
9.707141202852654e-06
3.3206810030605993e-06
-6.237618208615459e-07
-2.782717047011829e-06
-7.898054263932863e-07
5.2895538829034194e-06
9.571560667609447e-06
1.1047710586353787e-05
1.0502523878130887e-05
9.238621601070918e-06
5.462453827931313e-06
4.479479457586422e-06
-9.454616929360782e-07
-4.434991410562361e-06
-1.1436571867307066e-06
-9.33360183807963e-07
4.129626063331671e-06
1.3636174230668985e-05
1.4130411386759079e-05
1.7378963889314036e-05
1.43498987199564e-05
2.4970476033558953e-06
-3.6231130025043967e-06
-6.457544486693223e-06
-6.402192980203836e-06
-1.3305349284564727e-06
1.5299615370167885e-06
-9.365613777845283e-07
-3.173461323058291e-06
-2.3534353204013314e-06
-2.003386384785699e-06
-3.617999482230516e-06
-8.907798928703414e-06
-1.0282349649060052e-05
-7.381669206552033e-06
-4.931198077429144e-06
6.8288998136267764e-06
9.975894954550313e-06
1.4594032791137579e-06
3.975457730120979e-06
8.139592182487831e-06
1.1838165505650977e-05
2.0185721723464667e-05
2.4834978830767795e-05
2.5064158421628235e-05
2.1589160837720556e-05
2.02839114535891e-05
1.6826324554131133e-05
7.988153924998187e-06
-1.3637844631375629e-06
-1.5346087820944376e-05
-2.1642342517225188e-05
-2.0198801735205052e-05
-1.885891890651692e-05
-1.1308056059533556e-05
-1.3219754350757285e-05
-1.701398616660299e-05
-1.3650456708091951e-05
-1.2839159808208933e-05
-1.2066062367921404e-05
-1.5282240042324702e-05
-2.400813912117883e-05
-3.0472711614493164e-05
-2.9018556574555987e-05
-2.3676442651776597e-05
-1.4604947295993043e-05
-5.293253479976556e-06
-3.57242095105903e-06
-3.976914058512193e-06
5.632368583974312e-06
2.1697981878787687e-05
4.654432325423841e-05
7.721141673755483e-05
0.00011022472403965367
0.00012599985552697035
0.00011569652633625083
8.468399653338565e-05
3.367080785210419e-05
-2.1644426851707976e-05
-6.605962710182212e-05
-9.093293374462519e-05
-9.525323991965706e-05
-8.392997563078097e-05
-6.244954886369669e-05
-4.353068868567789e-05
-3.524607154758996e-05
-2.5288766209996538e-05
-2.3313520955525746e-05
-1.6919977610996284e-05
-1.1525697914294142e-05
-1.81167338269006e-05
-1.6957067600742448e-05
-1.4658329405392578e-05
-1.2066845783920144e-05
-2.913494654421811e-06
-9.183924021272105e-07
-3.783923602895811e-06
-4.910014013148611e-06
-5.714713438464969e-06
-1.697543098089227e-06
1.903769998534699e-06
1.7494664916739566e-07
-3.972904210058914e-06
-5.113155339131481e-06
-8.55564735502412e-06
-1.02446313121618e-05
-1.2400139439705526e-05
-1.1238171850891376e-05
-6.1181597175163915e-06
-2.338155468351033e-06
4.5787680846842704e-06
3.1184218869384495e-06
3.5569200917962007e-09
3.237301143599325e-06
5.767861352978798e-06
6.181585717968119e-06
9.58684324814385e-06
1.0778279829537496e-05
1.0218702527708956e-05
1.8837263041859842e-05
2.0540735590657277e-05
1.7103899722314964e-05
2.2035216034055338e-05
2.462948611992033e-05
2.8137934691585542e-05
2.9535930138990807e-05
2.7930453256885812e-05
2.231000826213858e-05
1.361362706120417e-05
1.4842941254755715e-05
2.3489903583140403e-05
2.969250590467709e-05
3.544845662872831e-05
3.23321575024238e-05
2.4171507902792655e-05
1.6764222323217837e-05
1.4834257399343187e-05
1.2594136023835745e-05
6.0025506627425784e-06
3.5570260479289573e-06
-3.583710167731624e-06
-9.179512062473805e-06
-8.350957841685158e-06
-9.730039664646029e-06
-7.564858265141083e-06
-5.9104741012561135e-06
-6.024587946740212e-06
-7.221807777568756e-06
-1.0219735486316495e-05
-8.98168264029664e-06
-8.044622063607676e-06
-6.4631668692527455e-06
-5.728329938392562e-06
-6.983889193179493e-06
-7.969018042786047e-06
-9.612327858121716e-06
-8.200648153433576e-06
-6.154982656880748e-07
2.941217189800227e-06
1.8000503132498125e-07
-3.5932437185692834e-06
-3.7741672258562176e-06
-1.0028703854914056e-05
-8.774736443228903e-06
-7.226813067973126e-07
-1.3368661484491895e-06
2.7334522201272193e-08
1.4330139492813032e-06
3.430590140851564e-07
-4.934578328175121e-07
-2.2578205971512944e-08
1.3579308415501146e-06
3.202560492354678e-07
-5.626330903396592e-07
7.758197853036108e-07
3.472575258456345e-06
6.654330832134292e-06
8.542262662558642e-06
3.5972113892057678e-06
-6.141385142655054e-06
-1.364732315778383e-05
-1.4852161712042289e-05
-1.0747284704848425e-05
-3.3990006613748847e-06
2.918156383202586e-06
3.850908797176089e-06
3.1986493240765412e-06
2.0318145743658533e-07
-6.639276080022682e-07
-3.4054878597089555e-06
-6.499075198007631e-06
-1.4871276334815775e-06
-1.25530482364411e-06
-3.4970207707374357e-06
2.33314835895726e-07
-1.1469642231531907e-06
-4.6836812543915585e-06
-2.160095959879982e-06
-4.292313292353356e-06
-6.012240874042618e-06
-7.96661379354191e-06
-7.675284109609493e-06
-1.133229727656726e-05
-1.1257684377596888e-05
-7.378641157629318e-06
-1.1537286923157808e-05
-1.217055751112639e-05
-5.332421551429434e-06
-3.2853579341463046e-06
2.5627037985032075e-06
1.1331609130138531e-05
1.1605267218328663e-05
1.168676328688889e-05
1.3689531783711573e-05
1.595639969309559e-05
2.2854467260913225e-05
2.823301394982991e-05
2.60294083318513e-05
1.996540140680736e-05
1.184059988190711e-05
3.7080694710311946e-06
6.164971182442969e-07
-2.1215639662841568e-06
-1.2295348142288276e-05
-1.9684759763549664e-05
-1.809297191357473e-05
-1.2499363037932198e-05
-3.731449169208645e-06
2.5738294198163203e-06
-5.03476712765405e-07
-1.271525025003939e-05
-2.1424636202027614e-05
-2.7308656626701122e-05
-3.248148163947917e-05
-2.9551908596658905e-05
-2.4243120037681365e-05
-1.785239999207988e-05
-1.1556700087567151e-05
-6.48517266199633e-06
-4.584839643939631e-06
7.1320380357065e-07
1.305657212924416e-05
3.477290283626644e-05
6.126367293290969e-05
9.301036163833487e-05
0.00011960572987845808
0.00012223868952787598
0.00010480868036211177
6.13043507655675e-05
1.7651184407441178e-06
-5.33286541894995e-05
-9.428024100088805e-05
-0.00010740868333414255
-0.00010373591067036614
-8.615592855676368e-05
-5.866745505045401e-05
-3.71666492355871e-05
-2.267961542656849e-05
-1.392844558267825e-05
-8.542280170331651e-06
-8.206004849853343e-06
-7.38172821002081e-06
-5.254153279565799e-06
-5.167685799278843e-06
-5.319999218045268e-06
-6.141299195405736e-06
-6.446004590543453e-06
-3.3193169883816154e-06
-1.5675810800530598e-06
1.2829568731831387e-06
-2.7137710958413663e-06
-1.191275089240662e-05
-1.239574771716434e-05
-8.174553613571334e-06
-1.4651833453172003e-06
3.854087935906136e-06
6.925306479388382e-06
7.323905037992517e-07
-1.091926594654069e-05
-1.097491269774764e-05
-8.460746130367625e-06
-4.27681925430079e-06
1.4652481354460178e-05
2.1696256339964748e-05
1.5904599990790302e-05
8.401153309023357e-06
-1.4809836557105882e-07
-5.316044507708284e-06
-7.364784551100456e-07
9.968428912543459e-06
1.687368796865485e-05
2.2023205588084238e-05
1.9710868741640297e-05
1.5761079225740104e-05
2.2565484755432408e-05
2.9158577035559574e-05
3.5375568245399336e-05
4.231257776154962e-05
3.84751768933711e-05
3.211586556517432e-05
2.537479633701878e-05
2.1503367293007614e-05
2.3903923306534125e-05
2.504325141217123e-05
2.1536747340178408e-05
1.5595816421409836e-05
4.54639427971415e-06
1.3898054476157995e-06
3.6196145174471894e-06
7.300166089407867e-06
8.246194624916825e-06
6.042768973202328e-06
3.0309772682812763e-06
-5.194676987230196e-06
-1.0826806715158455e-05
-1.4430079772864701e-05
-1.7200178376697295e-05
-1.5589253393955005e-05
-1.027908444939385e-05
-1.5874796872594743e-06
-3.658695959529723e-06
-1.2662775588978548e-05
-1.9646473560896993e-05
-2.5752777560228424e-05
-2.4027338099585904e-05
-1.7394374822288228e-05
-1.040089648540743e-05
-4.002685159321118e-06
-4.36499601619289e-06
-1.91644903679844e-06
3.876922392009874e-07
-5.054550911154365e-07
1.4584270502382424e-07
-2.499187644389167e-06
-3.3515484574309085e-06
-7.645474852324696e-06
-7.763112648717652e-06
-6.737549256286002e-06
-1.1214018741156906e-05
-9.55883501774224e-06
-1.1360139183125284e-05
-8.58166072248423e-06
1.388276700708957e-06
7.45784313949116e-06
9.441710631108435e-06
1.0228424571323558e-05
7.8643244023624e-06
7.125359161364031e-06
8.848910852066183e-06
7.036857709863398e-06
3.195105932718434e-06
-5.351073923520744e-06
-1.6758842434683174e-05
-1.7041783621607465e-05
-8.814947136670526e-06
-2.2457209070125828e-06
5.076838760942337e-06
3.5936781159762177e-06
-5.4432077831734205e-06
-7.954491252348816e-06
-1.1144538348162314e-05
-3.8990274333627895e-06
4.0880956930777756e-07
-1.2466721273085568e-06
5.131757575327356e-06
3.0045960102143e-06
-2.4437883894279366e-06
-3.7180083154453314e-06
-1.4793442005611723e-05
-2.108254454924463e-05
-1.7187138382723788e-05
-1.3757008446191321e-05
-7.103262532837107e-06
2.3099801182979718e-07
4.241145575178962e-06
7.27139774880925e-06
1.279734942727373e-05
1.726799200696405e-05
2.1193407633290917e-05
2.609935188502277e-05
2.7521126298779564e-05
2.662059898739244e-05
2.3072349563335592e-05
1.5500014796998585e-05
1.0184866255258385e-05
1.0107887646881863e-06
-6.879997158648621e-06
-1.166657909834612e-05
-1.5013766187621513e-05
-1.4540195934387157e-05
-1.062799924511637e-05
-9.575571539244265e-06
-1.2958511319993704e-05
-1.744572523421084e-05
-1.9843210225189978e-05
-2.439775778384501e-05
-2.582552849617059e-05
-2.044691723313008e-05
-1.8744921590041486e-05
-1.3756454450231104e-05
-6.1049771602483816e-06
-3.883693352690898e-06
-4.384353360364912e-06
-9.98654286377132e-07
1.0144808925360849e-05
2.4387065764130966e-05
4.706042170710134e-05
7.538892964475963e-05
9.611594282432634e-05
0.00011509611408655473
0.00011388396990241745
8.409971951550688e-05
3.4204224789391446e-05
-2.8576956765391515e-05
-7.889981441167038e-05
-0.00010525688117013487
-0.00010995426748650061
-9.813539281822159e-05
-7.888505558639736e-05
-5.991055093090836e-05
-4.157050898356829e-05
-2.226340507149871e-05
-1.1316558357066242e-05
-4.3962044173895265e-06
1.2363210544208414e-06
-2.6832613002625294e-06
-5.746121587435482e-06
-3.434437076066388e-06
-2.2926832343728165e-06
-4.171906425654015e-06
-9.08463766791101e-06
-7.872701871747267e-06
-8.26860957658937e-06
-6.084762617319939e-06
1.6639000932627823e-06
1.108273181671393e-06
2.1794146505271783e-06
1.1877900760737248e-06
-2.1331800326152006e-06
1.946086513271439e-06
-2.529986886656843e-07
-2.8993440537306014e-08
1.255217853213253e-06
4.0819304558681324e-07
2.960125584650086e-07
-3.854079409393307e-06
-7.782275133649819e-06
-9.353046834803536e-06
-6.2958330317997024e-06
1.009594825518434e-06
6.622429737035418e-06
1.1033829878215329e-05
1.12842893713605e-05
1.0373150303166767e-05
1.466444280140422e-05
1.791339695955685e-05
2.0138921854595537e-05
2.6801798526321363e-05
2.7856666406478325e-05
2.4949593694145733e-05
2.2649898937743274e-05
2.7419923526394996e-05
3.161352015013108e-05
3.3654951494099805e-05
3.4307962778257206e-05
2.8158003033240675e-05
2.5963265443351702e-05
2.721110661241255e-05
2.6395970280645997e-05
2.2654573854197224e-05
1.932799955284281e-05
1.8248047695124114e-05
1.5380057334368757e-05
1.216062378261995e-05
7.508325779781444e-06
-2.0845761810051044e-06
-8.040036505008175e-06
-7.593185728183016e-06
-9.088131832868385e-06
-1.247886336841475e-05
-1.412899371189269e-05
-1.3790902812615968e-05
-1.1589451446525345e-05
-1.1599179174481833e-05
-1.2524760791166045e-05
-2.0806886141144787e-05
-2.039196908754093e-05
-1.5478547766178963e-05
-1.2574245602081646e-05
-5.252586220194644e-06
-6.2941153373685665e-06
-1.5704990801168606e-05
-1.628894813165971e-05
-1.309667914028978e-05
-1.024845005304087e-05
-2.207275429100264e-06
7.834190682842745e-07
7.884256092438591e-07
7.983412615431007e-07
1.216130840475671e-08
-6.679519060526218e-06
-1.6208113038373995e-05
-1.6882667409845453e-05
-1.6613951629551593e-05
-6.023071250638168e-06
6.879265811221558e-06
9.988057172449771e-06
1.066202128185978e-05
4.549029540612537e-06
-1.5685200196458027e-06
-4.904471097688656e-06
-4.5894582854089094e-06
-3.659263143163116e-06
7.54357643018011e-09
6.834861665083736e-06
7.590367999910086e-06
5.548264425669913e-06
1.3827976772518014e-06
-7.793052418492152e-06
-1.2114760124859458e-05
-1.1793976341323287e-05
-6.809503247495741e-06
-6.991879217821406e-07
-3.847527523248573e-07
-8.234011374952388e-07
-5.079567472421331e-06
-6.933965210009774e-06
-4.660055765270954e-06
-1.7830825527198613e-06
1.6355606931028888e-06
-4.537214294941805e-06
-6.732164138156804e-06
-4.048044388582639e-06
-5.861222689418355e-06
-1.1227199365748675e-06
4.5632091314473655e-06
4.423287691679434e-06
7.237585123220924e-06
1.4942953271201986e-05
1.7652724068284442e-05
2.0083920503566333e-05
2.201731354034564e-05
1.8928084159597347e-05
1.7094315126087167e-05
1.3331155514606507e-05
8.37428558497777e-06
2.8318490876699798e-06
-3.408843326724309e-06
-4.1646227373348665e-06
-2.1854631313544814e-06
-4.004744937446958e-06
-6.423767558771942e-06
-1.7531642811263737e-05
-2.438722322040121e-05
-2.1069409285701113e-05
-2.4644562927278457e-05
-2.2990980369286262e-05
-1.9569979940570192e-05
-2.466735725192848e-05
-2.2745799810763856e-05
-1.809571131161647e-05
-1.5850183672228013e-05
-1.5047090187181311e-05
-1.4138169149191526e-05
-1.0013013024945394e-05
-5.866552896804933e-06
1.4443965028476669e-06
1.5794779415045923e-05
3.272682488386636e-05
6.006927048929356e-05
9.228974442976323e-05
0.00012070192053670326
0.00013003334788663778
0.00011039475600682636
6.680463570774009e-05
-1.1367009165041964e-06
-6.014355551542394e-05
-9.70180576587154e-05
-0.00010967490072744113
-9.800862255815446e-05
-7.512765489536832e-05
-5.4182860708351654e-05
-3.5075375308224466e-05
-2.3158618546403886e-05
-1.308061791860382e-05
-5.532948193831544e-06
3.4858271646953654e-07
1.995657839870546e-06
-2.355327069381019e-06
-5.744198006141232e-06
-7.094845273059036e-06
-9.84748305654648e-06
-8.983391580841271e-06
-5.043752139499702e-06
-4.912938265988487e-06
-2.5915816195265506e-06
9.284982525059604e-07
2.047905013569107e-06
1.4916419104338274e-06
1.550956199025677e-06
2.9842567528248765e-08
-1.023090590024367e-07
-3.2503197644473403e-06
-6.990961310293642e-06
-1.303750457282149e-05
-1.0875819725697511e-05
-6.883732112328289e-06
-3.324662429804448e-06
2.8613683298317483e-06
2.194443595726625e-06
3.2841290931173717e-06
6.195413789100712e-06
8.55664086429897e-06
8.304218681587372e-06
7.282010756171076e-06
8.479467851429945e-06
1.5447831401615986e-05
2.1994817416270962e-05
2.2704493176206597e-05
2.04539937840309e-05
1.690579631485889e-05
1.8795056689668854e-05
2.452051887757989e-05
2.8467771244322648e-05
2.873980122330977e-05
2.453544686886744e-05
1.604811632205383e-05
1.3893136951992346e-05
1.926368111071497e-05
2.1347384631553723e-05
2.2092734980105888e-05
2.1215894889792253e-05
1.4200804230313224e-05
8.744247111280856e-06
8.064574331001495e-06
5.58503143111011e-06
3.5253229953013943e-06
-4.6010954974917695e-06
-1.1127739753646892e-05
-1.620287196146819e-05
-1.6332592508661037e-05
-2.016868734244781e-06
8.846802870721149e-06
1.0108566016242548e-05
6.332821840260294e-06
-6.0334724594213185e-06
-1.8147636978937953e-05
-1.9959120322710078e-05
-2.1424004557957232e-05
-1.718981434351008e-05
-1.1438385058681888e-05
-8.617199341642845e-06
-6.521994009744958e-06
-7.250230851241213e-06
-1.2153413194937457e-05
-1.28262029193138e-05
-1.0242932034998375e-05
-8.504478614668187e-06
-1.0889069017139263e-05
-1.2411114994392847e-05
-8.453959480902995e-06
-2.9658547191502294e-06
4.561178457151982e-06
5.26654787336156e-06
-1.5908181012491696e-06
-2.136872808478074e-06
-3.877645440297783e-06
-1.344669726677239e-06
2.4229590280810953e-06
-2.0696199953817995e-07
-9.279237929149531e-07
-3.484771696093958e-06
-3.919983782907366e-06
-4.020904498247546e-06
-5.818490308229229e-06
-9.816569900067407e-06
-5.701969485016889e-06
1.1243849940001382e-06
6.5408520413257065e-06
1.1243675089644967e-05
1.0055814414045017e-05
4.1900093492586166e-06
5.90667355027108e-07
-3.065036366933782e-06
-5.12593078383361e-06
-8.368819067072764e-06
-1.2393989209158462e-05
-1.1566821740416344e-05
-7.611747264490987e-06
-5.592410502686107e-06
-4.358096589385241e-06
-2.9027385153312935e-06
-3.909129873136408e-06
-1.1360016287653707e-05
-1.3681478094440536e-05
-6.5321073634549975e-06
3.119336042800569e-07
1.5265412685039337e-05
2.5336942485409963e-05
2.5365137275912275e-05
2.0933572841386194e-05
1.3362394724936166e-05
6.338278353723581e-06
7.702218567828822e-06
1.4141976862447336e-05
1.447693955469731e-05
1.8494221421860857e-05
1.1767570867959876e-05
-2.035208012785006e-06
-5.7566555824450916e-06
-1.0129490874533076e-05
-1.378206479785149e-05
-1.2386669936859107e-05
-1.6963663142632868e-05
-1.5641256936760328e-05
-1.3181483609514544e-05
-1.546642113225971e-05
-1.9107393654849147e-05
-2.566057162312063e-05
-2.987660013786808e-05
-2.9598533160424267e-05
-2.7449796561995754e-05
-2.5460172082603094e-05
-2.331782150122308e-05
-1.6218544715229655e-05
-1.1737951922441425e-05
-7.729264211775444e-06
2.112002789544931e-06
1.7538554743623536e-05
4.226045882660401e-05
7.404624966511619e-05
0.00010996234993854159
0.00013443870568607963
0.0001312652707383677
0.00011263656313076353
6.712005927056452e-05
6.514568667626008e-06
-4.0491757999916445e-05
-8.034243603560753e-05
-9.986484712953825e-05
-9.57256163474085e-05
-7.937470570595906e-05
-5.7236557381656894e-05
-3.518505707233999e-05
-1.955200525571854e-05
-1.2530969911495049e-05
-1.0541901701799361e-05
-6.601221798518964e-06
-6.842815650998091e-06
-1.2159501693531638e-05
-1.8798345877257816e-05
-2.1322795419109752e-05
-1.6870459376150393e-05
-1.077785452707758e-05
-1.2877253539045341e-06
1.9183141830581008e-06
-5.655440418195212e-07
3.4681306715356186e-07
5.871078201380442e-07
-9.685199984232895e-07
-6.106985551923572e-06
-9.00640009149356e-06
-4.782240466738585e-06
-4.578719995151914e-06
1.13411351776449e-06
4.056320335621422e-06
5.494551942319958e-07
-3.5674025866683223e-06
-8.905322829377837e-06
-5.999422569402668e-06
-1.8217368733530748e-06
2.831759616128693e-06
8.964497624219803e-06
8.755040539654146e-06
5.204724971008545e-06
5.808416631225555e-06
1.2869343322563509e-05
1.540511641451303e-05
1.4949986848478147e-05
1.6049080500124546e-05
2.051019544069277e-05
2.6301909201720264e-05
3.247388860927458e-05
2.9138019385754887e-05
2.119573719028267e-05
1.2291723123780685e-05
1.3219627703620063e-05
2.1828476405971742e-05
2.536060674174223e-05
2.846444851911656e-05
2.5208678039234655e-05
1.8167581174566294e-05
1.2159578773207613e-05
9.058756290869496e-06
7.95960761479364e-06
8.955872203841864e-06
8.957809200182965e-06
4.10501490932802e-06
-2.7817742420666036e-06
-8.545636433154868e-06
-1.4421534160646843e-05
-1.626230152851349e-05
-1.8408321238894132e-05
-1.7766145560926816e-05
-1.2722961514555209e-05
-1.1812758998530626e-05
-9.084112548407575e-06
-8.720734172129596e-06
-1.2019346399938513e-05
-1.0291969374520704e-05
-6.489846327895066e-06
-1.8109295751855825e-06
5.840486664965283e-06
7.610270586155821e-06
4.160014896115172e-06
-2.476360805303557e-08
-7.154775744311337e-06
-9.361940783492173e-06
-1.1180101751051552e-05
-9.093198059417773e-06
-3.395279350115743e-06
-8.37754839722038e-06
-1.080670301689679e-05
-9.284902830586361e-06
-1.0075027603306808e-05
-5.627272003039252e-06
-5.020760909246746e-07
-1.0320777619199362e-06
-4.352657015260775e-06
-5.763000331171497e-06
-4.254802206560271e-06
6.340892468870152e-07
5.9211671441516955e-06
6.60869272905984e-06
5.154822815711668e-06
1.8370711813986418e-06
-4.847366767535277e-06
-1.0810527783178259e-05
-1.4786176961933961e-05
-1.064729883637483e-05
-7.799868853908265e-06
2.749255827438901e-07
5.621363470709184e-06
1.228305109179928e-06
-1.5703919871157268e-06
-6.300444283624529e-06
-1.1140889341731963e-05
-1.167542995972326e-05
-6.3358490933751455e-06
-1.549144599266583e-07
-1.4032480066816788e-06
-3.1898640600047656e-06
-6.929554501766688e-06
-6.995544367782713e-06
-1.4066891935726744e-06
1.4253346307668835e-06
4.709641302724776e-06
8.815814794616017e-06
1.2195793829050672e-05
1.966647084827855e-05
2.1211072635196615e-05
2.015749021211377e-05
1.7145737160717545e-05
1.3458826288115233e-05
1.5185312122412142e-05
1.3453576002575574e-05
1.0759113479252846e-05
8.287484433822101e-06
4.4571822854777565e-07
-7.978019425536331e-06
-1.3253300835458504e-05
-1.840827599153272e-05
-2.2897632447893557e-05
-2.241370236788498e-05
-2.0107246655243216e-05
-2.2281612700680853e-05
-1.8116443129656545e-05
-1.581137962602952e-05
-1.7786477997105976e-05
-1.885550079805398e-05
-2.24074212837877e-05
-2.6184317334809748e-05
-2.5381999421369983e-05
-1.915132372687367e-05
-1.6286939512610843e-05
-1.6832593701110454e-05
-1.0857800702979148e-05
-4.981976303497504e-06
9.498112035544182e-06
3.4794031876117515e-05
5.962115039892524e-05
8.98509554190241e-05
0.00011690395922414609
0.00012726228169412934
0.00011645279050753743
8.082907947937201e-05
2.49767907689602e-05
-2.6332265065320826e-05
-6.830293034454371e-05
-9.293694438383682e-05
-9.273614398352947e-05
-7.949049756916793e-05
-5.939727600434708e-05
-3.681717760173342e-05
-2.2780931544730265e-05
-2.016813346017443e-05
-1.8948523575090803e-05
-1.6181754403987725e-05
-1.6388847029702447e-05
-1.3835999880029703e-05
-1.2063767144354642e-05
-1.5687592053836852e-05
-1.4071913824409421e-05
-1.3815041143061535e-05
-9.633973832023912e-06
-5.349832235879148e-06
-6.978348551456293e-06
-1.0085481676469499e-05
-1.2880982353635773e-05
-1.1546865493983205e-05
-2.3258306782736327e-06
6.5333611019013915e-06
1.0125325843546307e-05
7.078164912854845e-06
1.499515292380238e-06
-6.471318783951574e-06
-1.1246772146478179e-05
-1.3024256531934952e-05
-1.3568329904956045e-05
-6.6152489353044075e-06
1.6266253624053206e-06
3.946052402170608e-06
9.25316373923124e-06
9.577518653713923e-06
6.79423396832135e-06
1.1585373272282595e-05
1.5803824794602406e-05
1.6097517004709516e-05
1.52985976455966e-05
1.0421664342175063e-05
6.463451427407563e-06
5.154944915375381e-06
7.63780781198875e-06
1.5238942751238937e-05
2.3525130586676823e-05
2.7297613655719033e-05
2.7946505383624753e-05
2.798745981635875e-05
2.2441445253207348e-05
2.2409521648114605e-05
2.2764664322494355e-05
1.996083619815181e-05
1.957862991730508e-05
1.859404471815651e-05
1.6806011899461737e-05
7.856617799006926e-06
-1.8286357317265356e-07
-2.673076892278914e-06
-8.939188433032541e-06
-8.41029100229207e-06
-1.1111257208540337e-05
-1.9519665784173412e-05
-1.8917727061307232e-05
-1.6746626215535798e-05
-1.5808371927050757e-05
-1.771131644545676e-05
-1.7474893979851913e-05
-1.5785417303959548e-05
-1.0297004678250232e-05
-1.9598394374042982e-07
3.5988932722830214e-08
-4.5613064685312565e-06
-7.738132921986107e-06
-9.338749237031152e-06
-7.3532999067538185e-06
-3.0993937798484694e-06
-4.47989668828086e-06
-6.4519180114075425e-06
-9.211201245307166e-06
-1.010697371839342e-05
-7.386174047496752e-06
-2.043487029368407e-06
8.701747560735384e-06
8.675117896927986e-06
5.606645117950393e-06
1.103532326851564e-06
-1.1908830515494628e-05
-1.3361379956222663e-05
-7.70178507991659e-06
-3.4002266602328746e-06
2.862013616322656e-06
1.31844626594102e-06
-4.5612525809701765e-06
-6.8191586706234375e-06
-7.513937248404545e-06
-1.986214783755713e-06
3.5938227256337996e-06
6.485183689619589e-06
1.0384694974163722e-05
1.0442147299727367e-05
4.776964601660438e-06
1.7228551314474316e-06
-3.904018967659795e-06
-6.264278681555879e-06
-2.8699801077891607e-06
-5.183346047488158e-06
-6.766755291209847e-06
-7.402917958643229e-06
-9.031775334733538e-06
-7.737602459201298e-06
-7.5458497121871915e-06
-4.18028855619923e-06
-4.014519390693749e-06
-4.190065965303802e-06
-9.592372407496441e-07
5.173302497496479e-07
2.4384859216297627e-06
2.4009929120438755e-06
7.134816542020417e-07
-6.587986263184575e-07
-1.7649200572122936e-06
1.2084091167707811e-06
3.835600296042685e-06
7.730925403848232e-06
1.5849084775254596e-05
1.9078530385741033e-05
2.1763818949693814e-05
1.4755887491446629e-05
6.548523629135161e-06
6.411166850739392e-07
-1.9863604165948345e-06
8.447653499388252e-06
1.4510285154756275e-05
1.3107208474139043e-05
1.075441991815751e-05
3.3246196835534647e-06
-3.60983347036381e-06
-2.8113599910284393e-06
-4.762606977237738e-06
-9.220535844178812e-06
-1.8975526700160117e-05
-2.269621950290457e-05
-1.827903213325044e-05
-1.9784094320129952e-05
-1.8577232935967913e-05
-1.7762926290743053e-05
-2.57764144180328e-05
-2.8768288530045538e-05
-2.7826643758999126e-05
-2.4501836719537096e-05
-2.0066745946678566e-05
-1.6092808550638438e-05
-6.066027481210767e-06
4.679723701883631e-06
2.2100969317762065e-05
4.9346826813234657e-05
8.13489408528767e-05
0.00011822980252418347
0.00014239977167562756
0.00013928265093454684
0.00011068147432524711
5.429240366083832e-05
-1.3651171684614383e-05
-6.481927357526729e-05
-9.112085945162107e-05
-0.00010086295515066013
-8.804411550045188e-05
-6.800181188282295e-05
-4.8616192657391366e-05
-2.8564937679220748e-05
-1.633642102660815e-05
-1.0502755571906164e-05
-8.617017329015653e-06
-8.780440111877397e-06
-3.9220670942086144e-06
-2.746892164395831e-06
-5.398307393988944e-06
-4.224903705107863e-06
-7.508955945922935e-06
-1.2095777265130891e-05
-9.022770314004447e-06
-6.038122251084133e-06
-5.118883223076409e-06
-8.167811529347091e-07
3.831110007013194e-08
-3.265130658292037e-06
-4.911008659291838e-06
-3.1149796768659144e-06
-2.6416627179060015e-06
-3.7993589785401127e-06
-5.432816237771476e-06
-4.888900321020628e-06
-5.060387934463506e-06
-3.0578303267247975e-06
2.3551979211333673e-07
1.6111807781271636e-06
2.472847427270608e-06
1.8664542267288198e-06
-3.7204654290690087e-07
-5.022266122978181e-07
5.197745167606627e-07
6.354714514600346e-06
1.5356934113697207e-05
2.0318125052654068e-05
2.2427165845329e-05
2.3903454234641686e-05
2.3964894239725254e-05
3.146521714825212e-05
3.862165613099933e-05
4.0625332985655405e-05
4.036493794501439e-05
3.754820738777198e-05
3.668867270789633e-05
3.218910876512382e-05
2.600576522127085e-05
1.843516554345115e-05
1.1969919228249637e-05
1.424704043984093e-05
1.592238334069407e-05
1.3464046332956059e-05
9.490233537690074e-06
1.1442155027907575e-06
-2.515228516131174e-06
-2.027126470238727e-06
1.9438638219071436e-06
2.3047607555781724e-06
-3.317442178740748e-07
2.080394096992677e-07
-2.4585522169218166e-06
-7.352098009505426e-06
-6.893452336953487e-06
-6.899701475049369e-06
-7.177525844781485e-06
-6.092814714975248e-06
-1.0667849096535065e-05
-1.617213035842724e-05
-1.7409120232514397e-05
-1.960855217930657e-05
-1.5897057778602175e-05
-1.1373082088539377e-05
-1.5581207321702095e-05
-1.4929821645637276e-05
-7.884995511631132e-06
-2.2532907451022766e-06
5.520724471352878e-06
1.0588487612039899e-05
6.547432576553547e-06
2.810713226608641e-06
1.9893715261787293e-06
1.6149914472407545e-06
-5.376234526011103e-06
-8.13329813809105e-06
-1.9452924107099534e-06
-3.0620467441622168e-06
-1.6152976058947388e-06
-5.365593324313522e-06
-9.2864427188033e-06
-6.620334033868858e-06
2.573378651504754e-06
9.981548828363884e-06
7.922522854642011e-06
2.4037874482019106e-06
-2.3185759800981032e-07
-4.911402584184543e-06
-8.229900231526699e-06
-9.152114557764435e-06
-8.374694516533054e-06
-7.041901085358404e-06
-1.3968736993774655e-06
5.3624111160388566e-06
3.103557787653699e-06
1.7109716736740666e-06
-1.8663196215129574e-06
-9.108513609135116e-06
-6.347469252432347e-06
-1.2141939578214078e-06
4.45040495833382e-06
1.1457299478934146e-05
9.674946795712458e-06
-4.129536819164059e-07
-8.042296940402593e-06
-1.2124358818255132e-05
-8.426431691077596e-06
1.389169028698234e-07
6.497594313259469e-06
1.105131309486751e-05
1.3935994843450317e-05
1.4634303852290032e-05
1.3412290741143806e-05
1.615523638065497e-05
1.538047388294217e-05
1.529504390873626e-05
1.9292615547783498e-05
1.9473308498163533e-05
1.5581721413582272e-05
1.0563191494838975e-05
6.313997346296674e-06
-4.3922443637711694e-07
-6.67110862195841e-06
-5.1821727993228706e-06
-7.931940217531519e-06
-1.3426041164166236e-05
-1.3603709703602362e-05
-1.7558794525029953e-05
-1.7724272538544028e-05
-1.500593236869463e-05
-1.9785522113124898e-05
-2.3584954760735855e-05
-2.4786370204310515e-05
-2.4580697527198936e-05
-1.8864607909563347e-05
-1.3723285633204796e-05
-7.719108225501259e-06
-5.4189944194149575e-06
-1.6391960571127129e-06
5.944599934082362e-06
1.660607483700005e-05
3.0021792554180138e-05
5.3777491643813846e-05
8.425660905686527e-05
0.00011781358773532702
0.0001283908077311935
0.0001072213327688587
6.190307522047078e-05
-3.7337314324759063e-06
-6.141554945315875e-05
-9.63462939580495e-05
-0.00011046608017295512
-0.00010276338173298427
-7.663260862500465e-05
-5.003229853173252e-05
-3.095446027145954e-05
-1.6597718285993324e-05
-1.3525054896490474e-05
-1.4975519775362045e-05
-1.3580295444626245e-05
-1.5035031083243666e-05
-1.1680128636726295e-05
-1.0721195735641231e-05
-4.584342946145625e-06
-1.0346964245400159e-06
-4.6290949740068754e-07
3.1531833428743994e-06
1.0603903319861274e-06
-2.8768047286575893e-06
-4.354157567831862e-06
-1.0138163816009182e-05
-1.238677009496314e-05
-6.56475799587497e-06
-1.313842631134321e-06
1.224743186867272e-06
5.414427846517356e-06
4.994665005142451e-06
-1.4219765489542624e-06
-4.652344387068297e-06
-7.05725392435852e-06
-9.301931299887656e-06
-7.679473583266372e-06
-5.1722846592383576e-06
-4.311727138883725e-06
8.901075716494233e-07
9.601146302884445e-06
1.4919150316927698e-05
1.6521710904271458e-05
1.4265340723795816e-05
8.135393159136584e-06
8.887983426575374e-06
1.6918602341320366e-05
2.331883047190786e-05
2.8611144330170646e-05
2.82874631238883e-05
2.5680747285150574e-05
2.4161013698176248e-05
2.799007643261575e-05
3.59158359515277e-05
4.07706032774513e-05
4.4195221107656835e-05
3.9907870927891054e-05
3.235554993352707e-05
2.5354225044793566e-05
2.2200141984285438e-05
2.3447082185157342e-05
2.0699496644738247e-05
1.5314725942516816e-05
5.606725380857824e-06
-4.192610958853038e-06
-1.1455235835455824e-05
-1.3056544048595242e-05
-1.8084827161146677e-05
-2.2755795498596854e-05
-1.917671227147366e-05
-1.5840748005757632e-05
-7.143796210584696e-06
-2.11894814583502e-06
-5.265054596748087e-06
-1.306536466927355e-05
-1.733759029320936e-05
-1.4626502547798736e-05
-1.6505990629411826e-05
-1.168908204363106e-05
-7.69232940456277e-06
-1.4526150607707677e-05
-1.4342196323013923e-05
-1.6020109910641622e-05
-1.9141579059578362e-05
-1.9337830735821626e-05
-1.59132304133891e-05
-1.0871494396269554e-05
-6.487725499937369e-06
8.99033693713136e-07
2.2947031084186165e-06
1.90556727375224e-06
3.4250346061526216e-06
-3.885580440510239e-06
-5.3647241884391406e-06
-4.177973664809542e-06
-5.290894478093833e-06
-7.962898962432519e-07
-3.5514233331923606e-07
-1.071630777005339e-06
-3.921125994565955e-06
-6.611282515223138e-06
-5.251163202046882e-06
-3.7679503748222487e-06
-7.786832156853052e-08
3.445431389081932e-06
4.72825058750459e-06
4.473639137358987e-06
2.3764254137859098e-06
-2.662131350916752e-06
-5.905119564886263e-06
-4.75541457944928e-06
-5.457983888845774e-06
-3.818607865468948e-06
-5.126518317410955e-06
-1.022057597310777e-05
-1.2379514146232395e-05
-9.695538665255299e-06
-6.892175520079036e-06
-3.836856421912671e-06
-2.0764350665558595e-06
-4.048190930916462e-06
-6.6700108618533704e-06
-5.549168577090313e-06
-1.3265949974083924e-06
4.067437544108543e-06
8.07992717000161e-06
9.401806892128661e-06
9.56509325078514e-06
1.153319419699983e-05
1.8371693499830144e-05
2.290979500685353e-05
2.5623517331041512e-05
2.2244798401516164e-05
1.331888745426113e-05
5.077126616015448e-06
-4.561225523502799e-06
-7.107859687494056e-06
-3.362086090419325e-06
-3.118440872640349e-06
-6.027394761076721e-06
-1.2662167478083575e-05
-1.7895678752211097e-05
-2.3211566258396488e-05
-2.1786550405522576e-05
-1.7923851942214242e-05
-1.6802453728814726e-05
-1.9827699702545942e-05
-2.3714872781965823e-05
-2.6826481075659103e-05
-3.198787555902527e-05
-2.9606551379401935e-05
-2.0675572159234434e-05
-1.2968627402187849e-05
-5.111884320285753e-07
4.979421873940737e-06
1.2295791179894877e-05
2.9031718895566883e-05
5.276965248413035e-05
8.646609910556435e-05
0.00012062437440363283
0.0001311769749463565
0.00011581728404053138
8.07561867759432e-05
2.149596559775091e-05
-3.8267797435764805e-05
-8.031706101974123e-05
-0.00010602538213788648
-0.0001094414321869408
-9.54874041099174e-05
-6.904092390414007e-05
-4.1319723209198855e-05
-2.0308909029154165e-05
-1.8111438748746878e-06
4.454666395758977e-06
1.66379243182746e-06
-2.542918764447677e-07
-4.962142384101753e-06
-7.389939355562092e-06
-6.933675422260421e-06
-1.0546611406425654e-05
-1.3363358448259532e-05
-1.5716188386249996e-05
-1.8262176809002995e-05
-1.2171048183517996e-05
-4.963004698765872e-06
-4.578720449899265e-06
-4.392113737594627e-06
-6.225741230991844e-06
-1.3463748132380715e-05
-1.2520070072241651e-05
-6.5170041807505186e-06
-3.1451985478270217e-06
1.924928142216231e-06
6.965419743210077e-06
9.354687676932372e-06
1.0628567224557628e-05
1.190798013794847e-05
9.748999559633376e-06
1.9991023236798355e-06
-5.491102797350322e-06
-1.0292339197803813e-05
-9.227620807905623e-06
-2.885084313675179e-06
5.193550464355212e-06
1.185269570669334e-05
1.6350011151189392e-05
2.3605008323102084e-05
2.9129962513252394e-05
3.43738274750649e-05
3.403271250590478e-05
3.0252100373218127e-05
2.7728990971809253e-05
2.744203959537117e-05
2.6581975248518575e-05
2.4509720105925226e-05
2.0097301899113518e-05
2.0506256078078877e-05
2.1081916088405706e-05
2.0230642348906258e-05
2.0253381990187336e-05
1.797540323877911e-05
1.6672811852913583e-05
1.3580502354670898e-05
1.2253186014277162e-05
8.725693078304175e-06
6.459980568251922e-07
-4.461592766347167e-06
-8.779096788202878e-06
-1.3529394095712632e-05
-1.670298127010028e-05
-1.8566324797575362e-05
-1.8560366356723534e-05
-2.1571992874669377e-05
-2.002348014684685e-05
-1.799138556179969e-05
-1.690516455710167e-05
-8.813361432657985e-06
-6.058929557184456e-06
-9.052608334059187e-06
-8.08721233624965e-06
-1.2445292099982908e-05
-1.0281911841047986e-05
-6.163963917060755e-06
-5.328404540705378e-06
-4.736827236229146e-06
-6.8741104541913955e-06
-1.2684267630902468e-05
-1.3237584312264516e-05
-6.437579827434092e-06
-4.678638674704416e-06
9.329512522526784e-07
3.354484533701907e-06
-1.1068573257944081e-07
-2.551061811573163e-06
-6.110981871643162e-06
-8.466831559417187e-06
-8.538526572010596e-06
-4.810051677850424e-06
6.491264116448292e-06
1.1163978456352197e-05
1.1654580703179818e-05
8.458374281872238e-06
-4.2009412482002517e-07
-4.103098262930871e-06
-9.078494940695236e-06
-1.7664543634055008e-05
-1.2881995075986197e-05
-5.114719783705368e-06
2.3546709826405277e-06
1.0008862773247529e-05
7.36086735741992e-06
-4.989378908248909e-06
-1.4611802725994494e-05
-1.436490254036471e-05
-7.5252603437547805e-06
-1.7025300849127234e-06
4.717084721050924e-06
7.823602345524705e-06
5.673438295161759e-06
3.5304357197674108e-06
-3.339991394568642e-06
-1.1007950433850056e-05
-1.3726720112572366e-05
-1.2237391274538822e-05
-1.2941817772116337e-05
-8.285030844490393e-06
-5.225663130659086e-06
-5.139958489053242e-06
2.7588821467361413e-06
1.0520693308535556e-05
1.4959556324356527e-05
2.0388836105666996e-05
2.390244355865434e-05
2.540197021971835e-05
2.1198899503360735e-05
1.7404769209861115e-05
1.319151283496467e-05
8.597399414611573e-06
7.375031714218494e-06
4.568067879517912e-07
-1.1068836101912893e-05
-1.9024156813429727e-05
-2.633511053318216e-05
-2.501050039427355e-05
-1.949328282080387e-05
-2.4383715185649635e-05
-2.0671248421422206e-05
-1.5059173733789066e-05
-9.022421068038966e-06
-5.457808015307819e-06
-1.2685285582847428e-05
-2.1085232333462045e-05
-3.1691473623141064e-05
-3.488176093924267e-05
-2.7878849550688756e-05
-2.380189062023419e-05
-2.205244913966453e-05
-2.4177577870432287e-05
-2.2172467538439378e-05
-9.85266797215445e-06
1.5691570297349244e-05
5.599662642907788e-05
9.156757948858285e-05
0.00012617340621545736
0.0001439917807601887
0.00013480733980486548
0.00010533187355576956
4.9341437375005626e-05
-1.1659861911539338e-05
-5.9226715166005306e-05
-9.046921127264795e-05
-9.880193351818889e-05
-8.943877446654369e-05
-6.636189664277481e-05
-4.285624356725748e-05
-2.4001629071790376e-05
-1.2828133890252502e-05
-1.295979836868355e-05
-1.0081807317874336e-05
-8.306131462632038e-06
-9.466197184337943e-06
-4.2926376409013756e-06
-1.9621609226305736e-06
-4.819580226467224e-06
-3.341267984069418e-06
-4.990925617676112e-06
-8.098834200609417e-06
-8.512207386957016e-06
-4.842421390094387e-06
-2.068662979581859e-06
-3.1967044833436375e-06
7.189934194684611e-07
3.4739374541459256e-06
5.787053396488773e-07
3.047882728424156e-07
-2.1890291463932954e-06
-4.232292326378229e-06
-3.885021442329162e-06
1.6713707964299829e-06
4.648996537071071e-06
2.2063514961701003e-06
3.48588082488277e-06
8.581864676671103e-07
-2.1985047169437166e-06
2.458450012454705e-06
5.702125804418756e-06
9.928327926900238e-06
1.56326619844549e-05
1.6421137274846842e-05
1.4185686040946166e-05
1.1652004786810721e-05
9.642360055295285e-06
1.0560337386777974e-05
1.5854328239583992e-05
2.4003996372812253e-05
2.6783355565385136e-05
2.4228375082202547e-05
2.356218499244278e-05
2.407875467724807e-05
2.701526534565346e-05
2.4444293785563787e-05
1.6098600895020354e-05
9.680679227130895e-06
5.900652581658505e-06
9.842499821388628e-06
1.3880326036996848e-05
9.934576951309282e-06
4.509230052462954e-06
9.770559472599416e-07
-2.271248263241432e-06
-3.6986554050599807e-06
-1.5522971352766035e-07
-2.311126763743232e-06
-2.838911882463435e-06
-3.2960836051643128e-06
-7.273869073287642e-06
-7.419843882416899e-06
-6.097008622418798e-06
-5.591976673713361e-06
-7.979263500601519e-06
-1.3126830936016631e-05
-1.5717240671619948e-05
-1.4814379028393887e-05
-1.3632687910103414e-05
-8.951001291279681e-06
-8.514877094967233e-06
-9.271667181565135e-06
-2.905421297327848e-06
9.294362826040015e-07
1.5052454500619206e-06
5.437022991827689e-07
-5.216321824264014e-06
-1.0758200346572266e-05
-1.1473309314169455e-05
-7.811460250195523e-06
-7.088359893714369e-06
-2.1609055238513974e-06
-1.8341113445785595e-06
-2.7523009293872747e-06
5.760054364145617e-06
8.996026735985652e-06
1.0749228749773465e-05
1.2358411709101347e-05
7.0878842279853416e-06
-2.0141053482802818e-06
-6.939436957509315e-06
-6.24703886842326e-06
-7.226748380162462e-06
-6.808555781390169e-07
5.934110617999977e-06
3.5714962223210023e-06
5.939984930591891e-07
-8.366279871552251e-06
-1.07378642724143e-05
-6.824934189353371e-06
-5.573967769123556e-06
-6.0294188415355165e-06
-1.2069103490830457e-05
-1.58158575231937e-05
-1.1755346918107534e-05
-3.2889889780562953e-06
6.163642979117867e-06
6.178462399475393e-06
2.2036674636183307e-06
9.034413324116031e-07
-1.97728320472379e-06
-2.6250812652506283e-06
-7.696141551605251e-06
-1.3533536957766046e-05
-1.5153492540775915e-05
-1.3180626979192311e-05
-3.6156034184386954e-06
-3.6876713238598313e-07
1.3886702845411492e-06
1.1484049764476367e-05
1.4611278174925246e-05
1.4953586628507765e-05
1.5534024782937195e-05
1.446652981940133e-05
1.2344570905042929e-05
1.6102060158118547e-05
2.5176939857374236e-05
2.385437085195008e-05
1.6224558066824102e-05
7.000938580858929e-06
-6.079739364395209e-06
-1.8013860881183064e-05
-2.5605338464629313e-05
-2.6419315531711618e-05
-2.4747099018895824e-05
-1.9789955217675015e-05
-1.7546826256875647e-05
-1.9894888851013093e-05
-1.8387066461400536e-05
-2.2745489445696876e-05
-2.6674921173253097e-05
-2.605645158837433e-05
-2.900565584695869e-05
-3.0502961180900456e-05
-2.9377627811300044e-05
-2.321321824183542e-05
-1.6551121120755852e-05
-1.1948791097893263e-05
-3.2395959124187357e-06
4.07449226713652e-06
1.896907417631155e-05
4.6730454982935044e-05
8.104124515284639e-05
0.00011711021704741142
0.00014280486811912851
0.00014143671228339372
0.00011640619561603671
5.976227191695216e-05
-4.819775654141267e-06
-5.347560954760411e-05
-7.993414510565344e-05
-8.628511966435326e-05
-8.32220215443158e-05
-7.193726048626559e-05
-5.4356156510948495e-05
-3.333317954457016e-05
-1.8167727830586955e-05
-1.2247929589648265e-05
-1.2686093100455764e-05
-1.8574503883428406e-05
-2.2063263941163314e-05
-2.125602543401328e-05
-2.1322961060832313e-05
-1.2043056244692707e-05
-5.556402129514026e-07
9.816687793318124e-06
1.0646956980053801e-05
3.295653527857212e-06
-1.6503090591868386e-06
-4.418028879626945e-06
-2.680091938600526e-06
9.982310302802944e-07
-1.0455624988026102e-06
-2.764963824120059e-06
-3.8143067513374262e-06
-6.03390401465731e-06
-2.800087941068341e-06
-2.657337404343707e-06
-7.776190273034445e-06
-8.36165042983339e-06
-9.517837952444097e-06
-7.281874673026323e-06
2.211007085861638e-06
6.92659295964404e-06
7.39112999781355e-06
7.448569476764533e-06
1.3643285797115823e-05
2.01801025241366e-05
2.804692235258699e-05
3.082549415012181e-05
2.480400496551738e-05
1.9880637864844175e-05
1.9875708517247404e-05
2.0111700223424123e-05
2.45429804408559e-05
2.9675062705791788e-05
3.001649781708693e-05
2.3465449999093835e-05
1.6141858964147104e-05
1.1822703413599811e-05
1.2293964118725853e-05
1.9697871948665124e-05
2.63211400124419e-05
2.5594751036805974e-05
1.9941147229474154e-05
1.0209635661340144e-05
2.7979195920124766e-06
-3.598986495489953e-06
-7.781776957926922e-06
-6.64447804865631e-06
-5.906770638830494e-06
-4.367230076240958e-06
-2.6157027832596214e-06
6.205723366292659e-07
-1.91963852103072e-06
-7.880227599343925e-06
-1.3415862440524506e-05
-2.1317222262950963e-05
-2.099205107697344e-05
-1.4440100130741484e-05
-1.0227833058706892e-05
-3.724089765455574e-06
-8.76161288942967e-06
-1.5486529264308047e-05
-1.592426735896879e-05
-1.3614213116852625e-05
-4.572947432279761e-06
5.402334409154719e-06
6.845926804999181e-06
4.989977469449514e-06
2.299565949215321e-06
-8.450514314972679e-07
-3.6421062077351962e-06
-4.9406380639993586e-06
-7.389518714262522e-06
-8.122556664602598e-06
-4.776518039761868e-06
-9.442039754503639e-07
8.939335884861066e-07
-1.4493543858407065e-06
-5.63375886031281e-06
-8.49849220685428e-06
-1.0621810247357644e-05
-9.89527086403541e-06
-4.625598194252234e-06
-1.0111303936355398e-06
2.970737114083022e-06
5.1070584277113085e-06
2.947683583442995e-06
1.5436713738381513e-06
8.780066309554968e-07
-9.021334790304536e-07
-3.434064637986012e-06
-4.5016836338618305e-06
-6.090419333304453e-06
-3.7502560417124187e-06
-9.764337391970912e-07
-9.028076419781428e-08
1.00546446901717e-06
1.1995159638900077e-06
-1.5003944326963392e-06
1.934785245794046e-06
1.9810170215350809e-07
-4.000950980298512e-06
-7.6086502076577744e-06
-1.2796194141628803e-05
-1.1812064258265309e-05
-4.047840093335253e-06
3.8977973417786416e-06
1.0550862839409092e-05
9.212465556629468e-06
-5.724963330067112e-07
-9.607521292309684e-06
-1.3062918583273131e-05
-1.1863680924761866e-05
-4.459881211005268e-06
6.269037839956582e-06
6.792349608986115e-06
7.569615263491869e-07
2.0964379245924647e-06
7.569849572064413e-06
1.5136850834096549e-05
2.199359050791827e-05
2.3883517883405148e-05
2.0227395793881442e-05
1.4726901554240612e-05
1.8809881794368266e-05
1.4835930414847098e-05
7.273841902133427e-06
-3.3393611147403135e-06
-1.8478464767213154e-05
-1.484452025124483e-05
-9.965637104869529e-06
-6.38453536794259e-06
-6.3253156667997246e-06
-1.5146547070798988e-05
-2.1192239614720165e-05
-2.1953744294478383e-05
-1.6384892660425976e-05
-1.3738562756770989e-05
-1.5046135899865476e-05
-1.740253458137886e-05
-2.4630632879052428e-05
-2.7775297326115833e-05
-2.873273763270845e-05
-2.3703555370957474e-05
-2.2167941324369167e-05
-1.5871737559791654e-05
-5.734601131734962e-06
2.2743158751836745e-06
2.239931973235798e-05
4.7564852025061555e-05
7.605634016272234e-05
0.0001103931621173615
0.0001342015303862354
0.0001351945725218684
0.0001140738014555609
6.560946530953515e-05
3.5409307201916818e-06
-4.7476017016379046e-05
-8.97190174100615e-05
-0.00010696814376842667
-0.00010090796445183514
-8.557518310681189e-05
-6.094515572385717e-05
-3.8493454781018954e-05
-2.7863728860211268e-05
-2.062447822481772e-05
-1.234509772984893e-05
-9.500166356701811e-06
-5.358081693884742e-06
3.0410866429519956e-06
2.644571395649109e-06
-3.873518494401651e-06
-2.249061026304844e-06
-2.5946437745005824e-06
-5.904114686927642e-06
-7.642991022294154e-07
3.2700995689083356e-07
-6.389615805346693e-06
-6.33678894246259e-06
-7.939173997328908e-06
-1.100570477774454e-05
-1.1984563002442883e-05
-8.823527537060727e-06
-2.2872770841786405e-06
5.377676984608115e-06
8.457621106572333e-06
2.4249781063190312e-06
-3.265988311795809e-06
-1.9672031612572027e-06
3.5036516692343866e-06
7.303735515051812e-06
5.869481810805155e-06
1.8333422531213728e-06
-1.8630946669873083e-06
-3.994604526269541e-06
3.097801709373016e-06
1.0384792290096811e-05
1.5693881437073287e-05
2.503498240002955e-05
3.0222139230318135e-05
2.5979595875469386e-05
2.310068828137446e-05
2.289794315402105e-05
2.391077055108326e-05
2.9015190648351563e-05
3.3444437690377526e-05
3.248941436595487e-05
2.7721017659132485e-05
2.4605942599009722e-05
2.3762591808917932e-05
2.4108799721034302e-05
2.5710042677928868e-05
2.3217939428832324e-05
1.68835692875291e-05
1.6840877151480527e-05
8.867651445143565e-06
-2.1593291421595495e-07
-1.2795417205779813e-06
-2.8877366275992244e-06
-5.450581284094369e-07
2.0786244476767024e-06
-4.673054263548693e-06
-1.5681211380069726e-05
-2.3476225351259927e-05
-2.613869344259001e-05
-1.988780888950714e-05
-1.1202678138033662e-05
-1.0456728546159866e-05
-1.0927307471320091e-05
-1.164899799732666e-05
-1.4310744631984562e-05
-1.4558737461811688e-05
-1.6269074080810242e-05
-1.8795896380652266e-05
-1.565173090511962e-05
-1.1768963872782479e-05
-6.426811410165101e-06
-3.304992787889205e-06
-7.922505119495327e-06
-8.278064910882676e-06
-8.402666480833432e-06
-3.0224518923205324e-06
1.597410800968646e-06
-7.537738611063105e-07
-3.5960704281023936e-06
-5.930726501901518e-06
-6.105940428824397e-07
7.215154823825287e-06
7.127298317755049e-06
7.693881798331859e-06
1.6795170267869253e-06
-4.503771492636588e-06
-4.928645353174943e-06
-7.380401257250924e-06
-8.234941219598113e-06
-7.609491945004265e-06
-6.019721809025214e-06
-8.018561175049399e-07
2.6079711687998497e-06
5.23912740391097e-06
8.05318632046692e-06
4.560941192721657e-06
8.731086609259364e-07
-9.242645546692074e-07
-5.4961307114353986e-06
-7.024355909379665e-06
-4.692630341196491e-06
-7.492544568776793e-06
-1.0754701520454546e-05
-1.2705482618002861e-05
-1.1945399592150352e-05
-1.3841510053680395e-06
8.230747539528238e-06
1.1453544402684201e-05
1.0100427175530058e-05
-6.112165920058032e-07
-7.624808858963661e-06
-9.181251471090945e-06
-7.215710638774908e-06
-1.1457107120804721e-06
2.370194692957739e-06
4.199269369564718e-06
4.6005098965906654e-06
-1.0447088243381586e-06
-1.7963768641493516e-06
-1.5598966456309427e-06
-5.016779596189735e-07
8.941433520703868e-06
1.674294469466986e-05
2.6065097813443572e-05
2.7584623808252218e-05
2.091611929699866e-05
1.3525074678000237e-05
6.035611818333564e-06
8.53332153383235e-07
-1.16740397970716e-06
-4.3482065166244865e-06
-5.242594738774642e-06
-9.237450171895034e-06
-1.130011753502913e-05
-1.4222329696167435e-05
-2.1878478946746327e-05
-2.6225227315990196e-05
-2.897297656545561e-05
-2.3261160549736815e-05
-1.8152128291148983e-05
-1.832383304645191e-05
-1.962187752724276e-05
-2.37351434861921e-05
-2.2231760340218898e-05
-1.4437850836657162e-05
-4.253423185218708e-06
6.119139698057552e-06
1.52959300976363e-05
3.091257121923263e-05
4.938295478496002e-05
7.43833962815188e-05
0.00010075840327772312
0.00011789248537752428
0.0001223810901365141
9.533636250580457e-05
4.1208072843801347e-05
-1.7095165844693838e-05
-6.934124985491508e-05
-0.00010193129605795548
-0.00010618489909575146
-9.780130881154037e-05
-8.385551745959674e-05
-6.151029333523184e-05
-4.151872258262301e-05
-2.3256395365933713e-05
-1.0573281770120957e-05
-5.0634596391319064e-06
2.3116169813874876e-06
5.916650707149529e-06
1.0086087172567204e-05
1.172485042388871e-05
4.709635163635539e-06
-6.116824806667864e-06
-1.6082312185972114e-05
-2.1780933252557588e-05
-2.1465425675160077e-05
-9.809002790461818e-06
8.43622046886594e-07
5.995258675284276e-06
3.4776348911691457e-06
-6.325404910967336e-07
-1.4335720379676786e-06
-1.7931246247826493e-06
2.8418010060704546e-06
4.4213198862053105e-06
1.7920090158440871e-06
2.0855143247899832e-06
7.211054935396533e-07
-2.6979747644872987e-06
-2.9935326892882586e-06
-7.731724622317415e-06
-8.20513832877623e-06
1.6634589883324225e-07
7.018355631771556e-06
1.259100065453822e-05
1.3406207585830998e-05
7.670170361961937e-06
7.386256584140938e-06
1.2180115277260484e-05
1.6507113059560652e-05
2.657991126397974e-05
2.8885792971777846e-05
2.674451775419584e-05
3.1182843144961225e-05
3.4193717283415026e-05
3.587359447010385e-05
3.921542077023332e-05
3.600255593028123e-05
3.029040237834124e-05
2.487516997007333e-05
2.1738160853601585e-05
2.477712178006186e-05
2.457604989558604e-05
2.0568675154208904e-05
1.258438817330898e-05
-7.911796728876652e-07
-8.334829090017593e-06
-1.4512571624436532e-05
-1.3925209373155667e-05
-1.0063713716590428e-05
-1.8873076328418392e-05
-2.4091157001748797e-05
-2.1150495399524516e-05
-1.5165801869443385e-05
-1.1778172392951092e-06
7.939206511764496e-06
5.950417403255415e-06
7.786801461406867e-07
-1.2412137834871828e-05
-2.2489968841910013e-05
-2.238937850052025e-05
-2.258333063309692e-05
-1.9178152797394432e-05
-8.961367598203651e-06
-2.0759270000780816e-06
-1.6394997146562673e-06
-6.151548404886853e-06
-1.2401120102367713e-05
-1.3117456774125458e-05
-1.139532150773448e-05
-5.867693971595145e-06
-1.8499700900065363e-06
-4.4134944801044185e-06
-1.0843543350347318e-05
-1.266345805106539e-05
-1.1948729820687731e-05
-8.615949241175258e-06
-3.3914865298356744e-06
-2.9860508448109613e-06
-5.6108455055436934e-06
-1.0697202583287435e-05
-1.478225851769821e-05
-1.2287666891097615e-05
-9.268394023820292e-06
-6.043470307304233e-06
-5.727838129132579e-06
-5.930609859206015e-06
-7.141280434552755e-06
-6.276481599343242e-06
-9.68658491729002e-06
-1.092395484647568e-05
-7.980889677128289e-06
-2.6102095489477506e-06
2.981929583256715e-06
3.633618121057225e-06
-3.6104120226809755e-07
-9.463726996727928e-06
-1.8280997778674646e-05
-1.711766424250527e-05
-9.841836799751036e-06
-2.828579113156593e-06
4.048834057357453e-06
3.863987672048097e-06
-3.981728013968677e-07
-1.2411146599333733e-06
8.727948852538248e-07
6.090854185458738e-06
9.472754754824564e-06
9.203514537148294e-06
9.409787367076206e-06
5.657779297507659e-06
4.805578896593943e-06
7.948028837745369e-06
1.2964557072336902e-05
1.8241750467495876e-05
2.4980093144222337e-05
2.581646310773067e-05
1.672472444624873e-05
1.2106885719731508e-05
1.0365592174821359e-05
9.151198810286587e-06
9.456952511754935e-06
8.14178872587945e-06
5.982230049994541e-06
1.7285348121731658e-06
-1.2437238865459221e-06
-1.927540665747074e-06
-7.123344516912766e-06
-1.1778172620324767e-05
-1.7399701050635485e-05
-2.2120514813650516e-05
-2.5702449761411117e-05
-2.684325443169655e-05
-2.151256410343194e-05
-9.688035561339348e-06
-1.4785127859795466e-06
4.97844121127855e-06
5.094638595437573e-06
2.466699697833974e-06
9.925774861585523e-06
3.35665284865172e-05
6.459199983055441e-05
9.635902119953244e-05
0.00012648583367536048
0.00012663733923545806
9.925425490564521e-05
5.509868321951217e-05
-6.72270618906623e-06
-5.793236539375357e-05
-8.814180500849034e-05
-9.751071922892152e-05
-8.778311064361333e-05
-6.869064770853583e-05
-4.364137930679135e-05
-2.5033710585375957e-05
-1.7046559833033825e-05
-1.301694805988518e-05
-1.3601591263068258e-05
-2.023546994678327e-05
-2.4140142045325774e-05
-2.4500137783434184e-05
-1.7626814496907173e-05
-1.1110532113889349e-05
-4.12759322898637e-06
4.160823209531372e-06
1.3347870435609366e-06
-2.0120520503041917e-06
2.1610446765407687e-06
3.337772795930505e-06
1.9399898292249418e-06
3.409885493965703e-06
-3.089100687247992e-06
-1.172558097550791e-05
-1.4305246622825507e-05
-1.5045406144054141e-05
-1.4356990050146123e-05
-1.0960484473798715e-05
-6.681535978714237e-06
-4.024180839223845e-06
3.2454124720970867e-07
4.851234507441404e-07
6.770255822630133e-07
4.080158078068052e-06
8.287383934657555e-06
1.3610498740490584e-05
2.0315998881415e-05
1.7831756622399553e-05
6.482087087533728e-06
1.995340880966978e-06
2.9816095548085286e-06
1.242959456249082e-05
2.2976445848144067e-05
2.597945945126412e-05
2.4516518237760465e-05
2.222105558757903e-05
2.4445694407404517e-05
3.102585174019623e-05
3.3111739298874454e-05
3.123401268112502e-05
3.402887989523151e-05
3.61811227094222e-05
3.31295325395331e-05
2.7114364570479665e-05
2.0963614815627807e-05
1.417648013557482e-05
1.117391548177693e-05
1.1180744763805706e-05
7.475803499801259e-06
1.6252129171334673e-06
-3.796765213337494e-06
-9.411355335942062e-06
-1.3070966247141769e-05
-1.8798792439156387e-05
-2.309133139988262e-05
-2.0517662392194325e-05
-1.1690812357301184e-05
-4.502754109125817e-06
-7.87523356393649e-06
-1.435188619325345e-05
-1.7604482877686678e-05
-1.8260780507262098e-05
-1.1942079254367854e-05
-4.869431450060802e-06
-6.9145892211963655e-06
-1.0748985801001254e-05
-8.382745591006824e-06
-7.336900466725638e-06
-1.2535548876257963e-05
-1.759100177878281e-05
-2.0422254010554752e-05
-1.8145874150832242e-05
-1.1039617902497412e-05
1.011765789371566e-06
5.14006637786224e-06
2.4320638658537064e-06
3.7171791973378276e-06
5.338554842637677e-06
7.268601848409162e-06
1.4408493825612823e-05
1.0515473491068406e-05
-1.8778143839881523e-07
-4.9632162699708715e-06
-1.2981969689462858e-05
-1.3720387528337596e-05
-8.331160870511667e-06
-9.495339895693178e-06
-6.769435003661783e-06
-2.6050440737890312e-06
-1.1260749488428701e-07
2.5636227292125113e-06
-1.334817056886095e-06
-6.603783845093858e-06
-6.116211011431005e-06
-1.470688403060194e-06
-2.2740027816325892e-07
3.4200397749373224e-06
2.3078227968653664e-06
-1.555343828840705e-06
-3.7559051406788058e-06
-3.249940959904052e-06
-3.712554075718799e-06
-7.556736818514764e-07
-1.6859576135175303e-07
-4.017424771518563e-06
-9.635307264943549e-06
-1.5860073403928254e-05
-1.452673382118519e-05
-1.1455121693870751e-05
-7.661165682293358e-06
1.3980793482915033e-06
9.8658006209007e-06
1.8819821093529754e-05
2.690358508061763e-05
3.0078312079240277e-05
2.863043312117952e-05
2.1476154756783217e-05
1.591145053225773e-05
1.2084021250302612e-05
7.420893439302745e-06
5.2982629767939216e-06
2.015364657381724e-06
-6.048646582712536e-06
-1.5625477203684568e-05
-2.2950829816181795e-05
-2.4493382056789414e-05
-2.0929587549289863e-05
-1.388028101700911e-05
-1.0473292832102743e-05
-1.1112947959190933e-05
-1.5568330582027556e-05
-1.8019626509158115e-05
-1.5392177033390908e-05
-1.7310571593043278e-05
-1.9629987264124793e-05
-2.0387355220918835e-05
-2.459032771184866e-05
-2.4297545678564347e-05
-1.9693074818860623e-05
-1.4226137523110083e-05
-4.64700065094803e-06
1.1071473636548035e-05
3.141177785437321e-05
6.142149936749774e-05
0.0001041500281644403
0.00013630594833102805
0.00014714325379827642
0.00013312427495293377
8.639029624646355e-05
2.1607297640002798e-05
-3.75590940393522e-05
-8.440191720637813e-05
-0.00010845040287676966
-0.00010898700941197603
-9.5303532248181e-05
-6.606817055399006e-05
-3.996311068021896e-05
-2.6297465637981077e-05
-1.587832184668514e-05
-1.1671761399156821e-05
-1.1399796449040878e-05
-4.753245207211876e-06
2.202213408963871e-06
-1.9149713352817344e-06
-5.801892257295549e-06
-3.142165382996609e-06
-3.7090341038492625e-06
-6.835102794866543e-07
-3.630565061030211e-06
-7.620631208737905e-06
-1.415725341757934e-05
-1.9287825011815585e-05
-1.9068734900429263e-05
-1.698325240795384e-05
-1.2440272598723823e-05
-9.263582796847913e-06
-1.3849501101503847e-06
4.8705361450629425e-06
1.75270520230697e-06
9.669065548223443e-10
9.975104831028148e-07
5.188180693949107e-07
1.560960299684666e-06
4.493331061894423e-06
5.440942118184466e-06
8.816494982966105e-07
4.6947575356171e-06
1.3043615012975351e-05
1.555899291361129e-05
2.1210541717664455e-05
2.1019715859438293e-05
1.3289437220009859e-05
1.1320375961076934e-05
1.3082424175081542e-05
2.0106275769649073e-05
2.2808629296378058e-05
2.4884688286874734e-05
2.5314846425317228e-05
2.1210430077189812e-05
2.520657369586843e-05
3.030955781468947e-05
3.16340034487439e-05
3.061016434457997e-05
2.7268191161056166e-05
2.127235461557575e-05
1.2793066503036243e-05
9.956776466424344e-06
9.014311785904283e-06
4.861323191107658e-06
4.695784809882753e-06
2.0948004930687603e-07
-2.337470164093247e-06
-2.8408226171450224e-06
-3.124358386230597e-06
-2.8408741172825103e-06
-3.552397970452148e-06
-5.36657591965195e-06
-8.777452762842586e-06
-1.2296073009565589e-05
-1.7268110582335794e-05
-2.115456629780965e-05
-2.056865832855692e-05
-2.045305359388294e-05
-2.0551888269437768e-05
-1.7391582787240623e-05
-1.4401385783457954e-05
-9.920457614498446e-06
-6.616088512600982e-06
-4.719015691989625e-06
-7.3843091286107665e-06
-9.942902352122474e-06
-1.077509216429462e-05
-1.0361005251979805e-05
-1.1150569321216608e-05
-8.728350621822756e-06
-9.433904438083118e-06
-1.0753027595455933e-05
-6.5492765770613914e-06
-4.200186708658293e-06
-6.678245654256898e-07
4.7591926204404444e-06
1.637901050344226e-06
-2.5682156774564646e-06
-1.15996817839914e-06
-3.1324441351898713e-07
2.0791251245100284e-06
6.528278163386858e-06
4.392092478155973e-06
3.963344738622254e-06
3.622725785135117e-06
-2.9688030735997017e-06
-3.2484987286807154e-06
-1.22080882647424e-06
-1.515467033641471e-06
-1.0290773388987873e-06
2.0598980654540355e-06
6.686309461656492e-08
-3.161493282277661e-06
-4.737900439977238e-06
-5.9306069033482345e-06
-6.664495685981819e-06
-2.311421212652931e-06
2.2921633444639156e-06
1.7025554370775353e-06
-5.790145678474801e-07
-1.2125698276577168e-06
-1.5199202607618645e-06
6.878124167997157e-07
-1.2728776255244156e-06
-3.1420937602888444e-06
-7.799839067956782e-07
1.1331862879160326e-06
5.665048661285255e-06
1.0067604875985126e-05
1.1997653700746014e-05
1.1598106084420579e-05
1.597062816927064e-05
2.020405452185514e-05
1.809306218092388e-05
1.4520600416290108e-05
9.927007340593264e-06
5.899629172745335e-06
5.178194328436803e-06
3.2731130659158225e-06
-1.2584811202032142e-06
-9.578620506545121e-06
-1.2510118608588527e-05
-1.69100211451223e-05
-2.229455640190281e-05
-2.1294124849191576e-05
-2.2874269347994414e-05
-2.1942047169432044e-05
-1.535718490686122e-05
-1.6106138559734973e-05
-1.7413396562915295e-05
-2.056269806871569e-05
-3.043035997052357e-05
-3.258216179347073e-05
-3.096008776992676e-05
-2.7535335561879037e-05
-1.6994889847410377e-05
-1.1013401831405645e-05
-9.534523314869148e-06
-6.392659088305663e-06
8.492974757245975e-06
3.303241066987539e-05
6.861741871944105e-05
0.00011889830921063549
0.00015355796199401084
0.00016301113805639034
0.00014177703747009218
8.509337988016341e-05
1.2513240790212876e-05
-4.801126669917721e-05
-8.698696251485671e-05
-9.956095948382426e-05
-8.96395428071628e-05
-7.148346571739239e-05
-5.0043847295455635e-05
-3.140798469303263e-05
-2.4192423097701976e-05
-1.7991252889260068e-05
-9.379960943078913e-06
-1.0123425454366952e-05
-1.0442918323860795e-05
-9.731626960274298e-06
-1.65492475616702e-05
-1.6187457276828354e-05
-1.0085656185765401e-05
-7.571130822725536e-06
-9.495016684013535e-06
-1.267576442387508e-05
-1.2237331588949019e-05
-1.7379918858750898e-05
-1.083237305010698e-05
-2.813818468894169e-06
2.942941819128464e-06
1.0257908115818282e-05
6.712012918796972e-06
6.685081643809099e-07
-4.255447834111692e-06
-6.011277832840278e-06
1.7332921515844646e-06
9.891085369417851e-06
1.0573388522061578e-05
3.5329886713952874e-06
-2.7773057809099555e-07
-4.0007405459618894e-06
-5.928688779022195e-06
-1.8501492604627856e-06
1.9070682810706785e-07
2.44603063492832e-06
8.831052582536358e-06
1.502309828538273e-05
1.9947780060647347e-05
2.3059121986079845e-05
1.9231449300605163e-05
2.0174413066342822e-05
2.160939072837209e-05
2.0733749579449068e-05
2.6352472673352167e-05
3.057838330278173e-05
2.773052995053149e-05
2.2703348463437578e-05
2.360655241773202e-05
2.7315411216477514e-05
2.3491902766181738e-05
2.6488277853786713e-05
2.2077558242017403e-05
1.5028000461825286e-05
1.0799015399243217e-05
1.5441524965353892e-06
-7.140816478568013e-06
-1.5667630577809177e-05
-1.8060533534480783e-05
-1.3797312249153038e-05
-7.980955388120492e-06
-6.17458647411695e-06
-7.1789565936342115e-06
-1.1019472935913655e-05
-1.2705555604952679e-05
-9.339875418845622e-06
-5.3314264505388564e-06
-5.8594831671143766e-06
-6.283859988798213e-06
-5.26973087744409e-06
-3.5674845548783196e-06
2.129874019374256e-06
2.996171815539128e-06
-2.2794063170294976e-06
-9.812708867684705e-06
-1.2897682495349727e-05
-1.0727711924118921e-05
-1.0148164392376202e-05
-4.827118914363382e-06
-7.737971259302867e-06
-1.532651413072017e-05
-1.2995734209653165e-05
-1.1859538403768966e-05
-7.788831339894386e-06
-3.796852297455189e-06
-3.5261963375887717e-06
-1.24678274460166e-06
-3.562722667993512e-07
3.1099284569791052e-06
6.158797987154685e-06
5.65651282613544e-06
5.554783001571195e-06
-1.5800890196260298e-07
-2.6484427735340432e-06
-2.6542003297436167e-06
-3.3743447147571715e-06
1.7955686644199886e-06
9.796533504413674e-07
-3.2251846278086305e-06
-4.443107513907307e-06
-7.001748599577695e-06
-7.051605507513159e-06
-4.731642093247501e-06
-5.050041636422975e-06
-8.710950169188436e-06
-1.0795270782182342e-05
-9.36389244543534e-06
-2.711836259550182e-06
5.5472609119533445e-06
5.356937549549912e-06
-4.459111778487568e-06
-1.3950560060038697e-05
-1.5256254073392483e-05
-8.533432946933317e-06
-6.062524562366889e-07
4.352078121883096e-06
2.381693093411741e-06
-2.7693182573784725e-06
-2.641328364916262e-07
3.660636593849631e-06
9.394567655363062e-06
1.5781851175233896e-05
1.5173120914369065e-05
1.5667603634028637e-05
1.658491612488433e-05
1.605194938747445e-05
1.9921669490940985e-05
1.9009144921255938e-05
1.8134923720936058e-05
1.2886580407212023e-05
4.209280973554996e-06
-5.5787438668630784e-06
-1.2887721254628559e-05
-1.4532839713865542e-05
-1.787658470675524e-05
-1.721027592793689e-05
-1.5737430544504605e-05
-2.0083913796042907e-05
-1.9060424278904975e-05
-1.621220485503727e-05
-2.1737292968282418e-05
-2.384308334058005e-05
-2.7717396164916863e-05
-3.175718518377835e-05
-3.0292919177554722e-05
-2.6838284952646063e-05
-2.129975371190085e-05
-1.767895810189657e-05
-1.3024496070102032e-05
-8.771940201768302e-06
-1.4439751794270705e-07
1.3667412531503942e-05
3.605273559514899e-05
7.271789684182295e-05
0.0001130785815348645
0.00014579383798718482
0.0001576729139287636
0.00013260611547138978
7.818640699497337e-05
1.2500087905209512e-05
-4.1744776012819784e-05
-7.120676536942483e-05
-8.314316767155105e-05
-8.120462223359937e-05
-6.985768891354383e-05
-5.60719522582076e-05
-3.848355470381648e-05
-2.9520449402298254e-05
-2.2048506025384995e-05
-1.990430371279217e-05
-2.0987737002542417e-05
-1.641823223508254e-05
-1.6989670712064253e-05
-1.4016576756148424e-05
-1.0216311807198508e-05
-9.560005878483935e-06
-5.085775910629309e-06
-5.343194516171934e-06
-7.675378469684802e-06
-9.310156428909977e-06
-8.557888008908776e-06
-4.083085968886735e-06
-1.0947111377390684e-06
2.7706475975719513e-06
1.9588924260460772e-07
-6.710609113724786e-06
-8.29760028864257e-06
-9.774287946129334e-06
-5.668171297656954e-06
3.9439680676878197e-07
-6.698811603200738e-07
2.4914003233789117e-06
4.9696139967636555e-06
5.9412011523818364e-06
4.185825332569948e-06
2.605146619316656e-06
4.645090712074307e-07
-3.0912542570149526e-06
1.212744109579944e-07
6.8857848418701906e-06
1.4942780353521812e-05
2.2917575279279845e-05
2.456955417073914e-05
2.2808822905062698e-05
1.6288915730910958e-05
1.4173162981023779e-05
2.1073416405670287e-05
2.843973049948545e-05
3.335889346089971e-05
3.340776800087042e-05
3.035916040516895e-05
2.5410558578187192e-05
2.7794439574790886e-05
2.7271229441794276e-05
2.0868609567514795e-05
1.2581718465298763e-05
4.856125769947539e-06
-6.61295052850619e-06
-8.384233638025762e-06
-2.7390980221753125e-06
-4.312440978537779e-06
-2.409848434581363e-06
-2.2676589424008853e-06
-7.627577701896371e-06
-5.8300049659010256e-06
-7.754449256935914e-06
-1.2605937740772788e-05
-1.2467664873838658e-05
-1.3141667409399815e-05
-1.0203664373875654e-05
-2.4773789846221916e-06
8.614410944574047e-07
-4.432139462551277e-06
-8.944030241764267e-06
-1.2260994822099747e-05
-1.4823124843132973e-05
-1.2928076898788277e-05
-6.797085802645597e-06
-1.7025412262228201e-06
4.7317587359430036e-07
4.3510226532816887e-07
-3.5495052088663215e-06
-8.634188816358801e-06
-8.597681244282285e-06
-6.124544142949162e-06
-1.8765711047308287e-06
-3.510465376166394e-06
-9.151744620794489e-06
-7.61484727718198e-06
-5.598789584837505e-06
-7.258658456521516e-06
-1.7835243397712475e-06
1.3670072576132952e-06
2.740350737440167e-07
6.246827979339287e-07
-2.8089766601624433e-07
-8.129478601404116e-07
-4.747523803416698e-06
-3.76532068457891e-06
-2.5503919687253074e-06
-5.6619601309648715e-06
-2.7008924234905862e-06
1.9841127141262405e-06
2.7564211677599815e-06
-1.657903112572967e-07
-4.818497927772114e-06
-2.164815555261157e-06
-4.08951109420741e-06
-1.1553242984518874e-06
1.282058747165138e-06
-3.2027480756369187e-06
-7.3143934287145385e-06
-1.1260550991210039e-05
-1.1498260505504732e-05
-1.1387695963094302e-05
-6.573341920557141e-06
-3.0970027182775084e-06
-1.7620441212784499e-06
-8.302652076963568e-07
-2.1880472331758938e-06
-2.264885665681504e-06
-5.0994661933145835e-06
-3.208571911272884e-06
-5.404677949627512e-07
3.628379431575013e-06
1.2676830010605045e-05
1.904732732782577e-05
2.399388665708102e-05
2.2711643282491423e-05
1.6402504797952133e-05
1.065674848632625e-05
1.030251905831392e-05
1.1666176988001098e-05
1.3032922083766607e-05
1.2997958151572675e-05
8.003851007742924e-06
-2.1530130425162497e-06
-1.0626812354530557e-05
-1.188117096262431e-05
-1.4376605577126611e-05
-1.2490839594647696e-05
-8.780747862147109e-06
-1.4924705283192452e-05
-1.97676256448176e-05
-2.038570880813495e-05
-2.1209619603723695e-05
-1.918477937579155e-05
-2.1551450004153594e-05
-2.5415034656361968e-05
-3.0481727321785e-05
-3.70097518498369e-05
-3.515532512210484e-05
-2.5028033405760652e-05
-1.4847905049464316e-05
-1.506851049271063e-06
7.0853363922651624e-06
1.8801373130372667e-05
3.549632219801424e-05
6.048553723303485e-05
9.504826994088944e-05
0.00012756949149661523
0.0001420717082964984
0.00013007006987209024
9.170320151952183e-05
3.0838129646326706e-05
-3.24196124665832e-05
-7.714547462001065e-05
-9.69021300534223e-05
-9.864124012892717e-05
-7.944049139041454e-05
-5.822211130634969e-05
-3.876117784784583e-05
-1.9086949578195345e-05
-1.1428043308114866e-05
-1.0470466691003821e-05
-1.4137504194877692e-05
-1.8753905237645085e-05
-2.0209338117638254e-05
-1.7049427583515353e-05
-1.3504521689355897e-05
-7.560056133115722e-06
-1.7483614556113025e-06
-5.932723070145585e-06
-6.437431693484541e-06
-6.9757635401401785e-06
-9.780513209989294e-06
-6.6430491187929874e-06
-5.201347335059836e-06
-7.636281907252851e-06
-8.133691949296917e-06
-1.459526174585335e-06
3.796792611865385e-06
7.456911816916545e-06
6.293761657616415e-06
-7.457829269696958e-07
-9.30001851884299e-06
-1.6062661302385095e-05
-1.5425127003254602e-05
-8.156846661222517e-06
-6.423156264645513e-07
5.712142410629895e-06
8.138090493048367e-06
7.417642109430744e-06
5.239901497589017e-06
1.044589544108021e-05
1.5712840308879095e-05
1.706567195469688e-05
1.4973471593293652e-05
1.5922604006846086e-05
2.0415871404111385e-05
2.835277462054364e-05
3.918815525594255e-05
4.140134615226998e-05
3.570181957002205e-05
3.153282011680858e-05
3.0276227221293084e-05
2.8666954676737078e-05
2.4723837100282253e-05
2.596370256924274e-05
2.3608908804817474e-05
1.7859508375295263e-05
1.6030826373025775e-05
9.877465913632477e-06
3.8765620047342964e-07
-7.157336995078367e-06
-1.0135505817743251e-05
-8.694517759977316e-06
-7.049246164569922e-06
-7.5807466828337056e-06
-4.768456278725353e-06
-7.651351324966527e-06
-1.3149352412256121e-05
-1.249129991265363e-05
-1.4700900237585302e-05
-1.4772768508919398e-05
-9.376561479257361e-06
-3.0538170676663867e-06
-2.049799036285549e-06
9.184202554024523e-08
2.275094061587879e-06
-9.303294064011425e-07
-5.607363505077956e-06
-8.332300239999313e-06
-1.1378929684724426e-05
-9.539372513245326e-06
-6.742216669408663e-06
-7.972280513968144e-06
-1.0820904208230786e-05
-1.0870964047171583e-05
-1.1393028898964985e-05
-1.1490869042063423e-05
-9.633502600081556e-06
-1.0047784826383577e-05
-1.0552390222073882e-05
-6.2172142634153715e-06
-1.3610804217023542e-06
5.853323727933457e-07
1.627915708013461e-06
3.3763564033506555e-06
3.886438889821875e-06
4.887995828539715e-06
2.2569061002286617e-06
-3.578260816539114e-06
-2.9957534479763126e-06
-2.918819859587529e-06
-3.0393493943847716e-08
4.818748720936128e-06
4.233257982377836e-06
-5.954972266408731e-07
-3.4911037118945387e-06
-6.454683102674608e-06
-1.2006657584606728e-05
-1.3885220141673926e-05
-6.374336521730584e-06
-2.1818763116243645e-06
1.1514969173731515e-06
1.0506505532248411e-06
-7.6214687396714e-06
-1.2383584930830693e-05
-8.621579922873934e-06
-6.72209591812134e-06
6.395284799509682e-07
6.386195195773325e-06
4.633625053429569e-06
4.831455271414598e-07
-3.2573834687354974e-06
-4.706265372078633e-06
-6.813041864006664e-06
-4.424965595717367e-06
-3.230474248994142e-06
-2.5145086510747205e-06
5.641293341795972e-06
1.412314520621294e-05
2.5465983185313235e-05
2.8519116312963888e-05
2.5494847818663402e-05
2.4786603376014682e-05
2.176824852995196e-05
2.2315243768389337e-05
1.8288357864548743e-05
7.407056500596809e-06
-3.7263547483235016e-06
-1.29707315181804e-05
-2.4097946607071208e-05
-2.996038392666378e-05
-2.8204333375470014e-05
-1.9003194779543264e-05
-1.2419679592312605e-05
-4.581323537422577e-06
-6.42680595319689e-06
-1.4777760043216404e-05
-2.1728622868977254e-05
-2.523504235796281e-05
-2.4684373329364462e-05
-2.497504988241417e-05
-2.319726343102957e-05
-1.8913475059889606e-05
-1.2939429097968969e-05
-2.304993358848151e-06
1.302415489590203e-05
2.87712823592301e-05
5.1357511893002084e-05
7.445703386110836e-05
0.00010660186364930269
0.00012607696066879726
0.00011764870339447953
9.016852027343703e-05
3.708724068474112e-05
-2.806794941534463e-05
-7.742700404378411e-05
-9.901789610466949e-05
-9.946340219357808e-05
-8.13802546417719e-05
-5.6031763847386173e-05
-4.008169241842552e-05
-2.746817926890799e-05
-1.7089941138692666e-05
-7.532741733484727e-06
-3.833791424767696e-06
-7.975114499458869e-06
-8.572688784624916e-06
-1.063856768723781e-05
-1.2634096151487029e-05
-9.788670809030009e-06
-8.698157785147487e-06
-8.062892447924241e-06
-9.045289516507182e-06
-1.3532086654777231e-05
-9.118352636505733e-06
-8.788248123892117e-06
-6.5244551024079556e-06
1.7067441149265505e-06
2.002561586778029e-06
1.7930395870280336e-06
7.121199814719148e-06
1.0148884598493169e-05
7.812706940057978e-06
4.575142611429328e-07
-7.4538336320983944e-06
-1.1461558869996225e-05
-1.1244960205658572e-05
-2.1801520233566407e-06
4.806353217645665e-06
5.203914042795077e-06
7.670716740904027e-06
4.799349653694662e-06
1.649390469538048e-06
8.579394261687412e-07
9.146468755716342e-07
6.006699436511553e-06
1.2702057347269147e-05
1.8253547409585735e-05
2.693779231321969e-05
3.7188858186709695e-05
3.7051806202725857e-05
3.663095333195088e-05
3.570719013623602e-05
3.1810182463232195e-05
3.2156516681425273e-05
3.691514348247438e-05
3.618471259869693e-05
3.523626935475477e-05
2.969530964946898e-05
2.0376451516312954e-05
1.5344368762271188e-05
5.367284416024631e-06
6.288789791142335e-07
2.1037031956439023e-06
5.376718945626635e-07
-5.788892053715244e-06
-1.225607422838948e-05
-1.5022017691990186e-05
-1.1733748692677182e-05
-3.795900283876108e-06
4.15618080751301e-06
2.2870879092806717e-06
-2.0937476392646204e-06
-7.193401188487769e-06
-9.474156968281022e-06
-1.12153942382065e-05
-1.3860304079571506e-05
-1.6913744730118196e-05
-1.902934002373513e-05
-1.5530731161561562e-05
-1.2652964755943685e-05
-1.721990076930524e-05
-1.9083923803009384e-05
-1.9399522329877072e-05
-1.8780549453367712e-05
-1.0190830948886287e-05
-5.407832190940098e-06
-3.265265490881575e-06
-4.9716885541783995e-06
-7.912741807558632e-06
-3.002499738613551e-06
-1.572394580762193e-06
3.174725179633242e-06
8.427532179666741e-06
6.359938083733141e-06
7.799825993970444e-06
8.68445658852579e-06
6.263662612582266e-06
1.5898411902526277e-06
-7.755712090329325e-06
-1.8029244870376715e-05
-1.9949691818510473e-05
-1.5614847711731272e-05
-9.335080676464713e-06
-4.123037456338352e-06
7.284159551090852e-06
1.242917642230168e-05
1.2123058695578948e-05
1.4192444950822392e-05
-3.9399071738444036e-07
-9.882855806608859e-06
-6.349539148686745e-06
-6.428831511584576e-06
-4.716394187198603e-06
-4.541708108263265e-06
-1.0342825476072903e-05
-9.745853844833618e-06
-6.376215651471284e-06
-5.194150503484707e-06
1.0957353424601024e-07
-2.5715428364492254e-07
-5.409168807091191e-06
-7.131436973395466e-06
-1.0491566740711278e-05
-7.223815032375569e-06
4.9924171889870195e-06
1.181353172796662e-05
1.5193836929938698e-05
1.560469002015452e-05
1.045428484758304e-05
8.340459316968918e-06
7.799138302289066e-06
8.042753847803397e-06
8.299336855088768e-06
1.1507644671837625e-05
1.3698679822482518e-05
1.3870320685782644e-05
1.0001516102420283e-05
4.02940793264861e-06
1.049300522026897e-06
-2.240945605080924e-06
-8.808060329101863e-06
-1.3227201634435914e-05
-1.6953964518506837e-05
-1.7664723372945446e-05
-1.1782970886997646e-05
-1.2278126746423368e-05
-1.84455537919348e-05
-2.1839595092387754e-05
-2.2427656745094282e-05
-2.3161445255936997e-05
-2.075830229841813e-05
-2.3400861437039566e-05
-3.254028206356452e-05
-3.421159112804162e-05
-2.5443417371207033e-05
-1.5918198187137023e-05
-6.471408369179699e-07
1.8737878463070956e-05
4.15085858094244e-05
7.140096147395525e-05
9.887917417472636e-05
0.00012474676441343036
0.00013683390591268108
0.00011963255633418157
8.577163009704236e-05
3.012860213402746e-05
-2.7992424975309405e-05
-7.743889705125184e-05
-0.00010352089918796992
-0.00010213139091774792
-9.027496878388774e-05
-6.662228827281069e-05
-4.0745916976447916e-05
-2.285232380927482e-05
-1.307195964272978e-05
-1.2845627793467429e-05
-1.1168808782713313e-05
-9.985074143514794e-06
-1.11177657799999e-05
-9.100053830479737e-06
-7.315868970181327e-06
-2.7641290216706693e-06
-1.7207739801960997e-06
-8.65071854150301e-06
-1.0418866622785572e-05
-6.687526251880627e-06
-7.444267453138309e-06
-9.834152479015756e-07
4.790781986230286e-06
-3.414233219700691e-06
-8.014630111574661e-06
-6.5937015278905164e-06
-5.349838033907872e-06
-3.286499577370705e-06
2.3315999442274915e-07
-2.289065150762326e-07
-3.564820872270502e-06
-5.69030828501127e-06
-2.336166289751418e-06
-1.6693389852662222e-06
-4.027458544442197e-08
9.356454029330052e-07
1.4184640804160153e-06
4.07370089305914e-06
9.423669894204068e-06
