-6.447528789976786e-06
-4.282908548702835e-06
-3.557701120371348e-07
-5.830743134538352e-06
-6.335783837130293e-06
-5.109117296342447e-06
-9.178950222121784e-08
1.0214296594313055e-05
1.4525082406180445e-05
2.259257132664061e-05
2.3071465193424956e-05
2.3635072466277052e-05
2.5578476765986125e-05
2.2854276494399528e-05
2.4815895699248358e-05
1.7220292420461192e-05
6.571758035534003e-06
1.405178750246705e-06
-6.934425300642033e-06
-8.055886496549647e-06
-8.685890293236298e-06
-1.1121026432192593e-05
-1.3817902640766988e-05
-2.2576632090931525e-05
-2.3476306409975223e-05
-2.3857938799665135e-05
-1.8513078885007417e-05
-1.1386019309611584e-05
-1.0912345828728576e-05
-1.3662174524142756e-05
-2.102382961766125e-05
-2.5058227151930623e-05
-2.3909594347060192e-05
-2.655288392361399e-05
-2.436612930978299e-05
-2.2258859985413437e-05
-1.957006782049575e-05
-1.3283903172123246e-05
-2.829966661010985e-07
2.649103237217787e-05
5.702568512333528e-05
9.563093374254095e-05
0.00013178851486372878
0.00014110163328950875
0.00012853017619818274
9.042444389706361e-05
3.1287051115214126e-05
-2.542580307363096e-05
-7.200177333288593e-05
-9.259710236619867e-05
-9.634038576677995e-05
-8.296435714783001e-05
-6.12234683785573e-05
-4.54925941539841e-05
-3.0508825375363813e-05
-2.2998533268037136e-05
-1.801100790999044e-05
-1.1228094876969408e-05
-1.3259733805170981e-05
-1.326728147432732e-05
-1.4544575719810382e-05
-1.3352079463402333e-05
-8.762471793488658e-06
-4.765527705785644e-06
1.932959435180237e-06
-1.749139642015507e-06
-7.025853619779809e-06
-7.688133791816654e-06
-1.1812360412477574e-05
-8.1852574567165e-06
-1.6500868014190928e-06
-3.498420255709789e-07
3.217296580260154e-07
-2.130941084033111e-06
3.7172981137700845e-08
-7.354182116614538e-07
-6.283581797106308e-07
-2.6730901936389273e-07
-3.834385779555305e-06
-1.6810664646982332e-06
-7.922151326056337e-07
-2.8843226118624443e-06
-2.874995743695763e-06
-3.2604847319817054e-06
3.834005042335775e-06
9.394866310685757e-06
1.385262055464409e-05
1.9405423586249526e-05
1.8317387571187282e-05
1.9829187522191205e-05
2.5563062649780477e-05
2.7972822522315255e-05
2.9445236577885225e-05
2.8777340162378096e-05
2.885235164740152e-05
2.5663518954388564e-05
2.224233412562171e-05
2.355052436087135e-05
2.440153957650182e-05
2.905146220655297e-05
2.801825542064762e-05
2.460044640884007e-05
1.9910938021894253e-05
1.1789536074502394e-05
9.816565579967573e-06
5.313615588420362e-06
4.3261172777420143e-07
-3.5983930501970463e-06
-9.534500691188441e-06
-9.699781685412745e-06
-1.095265770345577e-05
-9.365664709548582e-06
-7.950664667077945e-06
-1.2158874710621603e-05
-1.399717461936234e-05
-1.4704549926136679e-05
-1.4570066127816972e-05
-1.2192507028885302e-05
-1.0828041467902949e-05
-7.713588388469361e-06
-9.247683692592545e-06
-1.1003541885656887e-05
-1.2819088169635506e-05
-1.680457864949858e-05
-9.95704658635077e-06
-7.508225735364249e-06
-5.326033260644181e-06
-4.275287665223004e-06
-1.2234420296408643e-05
-1.7094270788220456e-05
-1.8356701616539794e-05
-1.3595005043498531e-05
-5.245764214123483e-07
6.216292490535125e-06
1.4098855444899527e-05
1.4924820334272226e-05
8.453992563772772e-06
1.8096156964020338e-06
-8.649614642308734e-06
-8.048832569329534e-06
-8.95402263267897e-06
-8.774223601903941e-06
-3.571017259673681e-06
-7.509476745326538e-06
-6.3493187099084025e-06
-5.873521672583593e-06
-7.64938613428967e-06
-7.606427288919804e-06
-1.1045152973565564e-05
-8.94021093245101e-06
-4.395884730001853e-06
3.2060449939308455e-07
5.748060516452824e-06
5.437625645754451e-06
4.148495463596191e-06
-1.7882842939798138e-06
-4.594739266394754e-06
-3.810557018368854e-06
-9.737992513692006e-06
-9.77410354607855e-06
-1.2606187965502613e-05
-1.4934988030290697e-05
-8.74265469974489e-06
-6.565077455888968e-06
-3.495202463454916e-06
-1.9063675154029625e-06
-4.088210062036524e-06
4.782288442584104e-06
1.5694740682192787e-05
2.6870441047321947e-05
3.335736585086124e-05
3.252695466926525e-05
2.6158711307289195e-05
1.3128395607964194e-05
1.2463287475839024e-05
9.508485845799441e-06
4.469267196327564e-06
1.1355905371601693e-06
-9.438725328436703e-06
-1.5614241306138865e-05
-1.799443725758465e-05
-1.988271890240867e-05
-1.8103737488672778e-05
-2.0053087837368366e-05
-2.276183886351646e-05
-2.6140598265556036e-05
-2.898255706895725e-05
-2.9802951075907913e-05
-3.4061365909110464e-05
-3.250170288993104e-05
-2.4771760649855423e-05
-1.7917788113663846e-05
-5.1176265287722345e-06
1.8258243699165178e-06
7.072403263919114e-06
1.2307689871704497e-05
2.044862969796668e-05
4.085370596840221e-05
7.008847933320794e-05
0.00010664301987617364
0.00013202354318764264
0.0001307252413198512
0.0001001476456394812
3.9318600784099544e-05
-2.970750733766181e-05
-8.357092792721232e-05
-0.0001129271765876183
-0.00011453274100858835
-0.00010118332420461229
-7.389045572381292e-05
-5.100710177430301e-05
-3.3267602134401386e-05
-1.4605191495320469e-05
-4.744444595417008e-06
4.9056487796406145e-06
1.0406844580757024e-05
4.418317644194758e-06
-1.1135878139612032e-06
-1.2331049560998508e-05
-1.8695503513299627e-05
-1.6527671732546878e-05
-1.5002302120592503e-05
-1.0391113050900458e-05
-8.552947974749259e-06
-4.452188022696646e-06
-3.94046571727813e-06
-3.018467850779416e-06
-2.0674967800005106e-06
-5.593202672571351e-06
-2.7658834369503893e-06
4.660785180021776e-08
2.5505919438728597e-06
1.4059645536690368e-06
-5.698944050891441e-06
-3.905629000655608e-06
-1.965917817869922e-06
4.864409675064962e-07
7.0533245661863475e-06
4.0252025428344496e-06
1.289567990170326e-07
4.530102160060778e-07
1.5015746157587273e-06
3.8356539562300895e-06
4.849447918786609e-06
1.0861475516321661e-05
1.3811978305966477e-05
1.621779654215061e-05
2.8364889658405446e-05
3.173788809363032e-05
3.721278665125283e-05
3.668636895781674e-05
2.9775085408800805e-05
2.8721435342049517e-05
2.8414305802471063e-05
3.133051109216467e-05
3.060461665427283e-05
2.4284743858515867e-05
2.061997145119676e-05
1.9407197100917983e-05
2.557557047566661e-05
3.0998345209809486e-05
3.238887256884482e-05
2.7626908604361233e-05
1.2163684118604579e-05
3.2095966844281065e-06
-5.33046625150746e-06
-1.2087182653885975e-05
-1.0215295219495601e-05
-1.1865175565617392e-05
-1.1948701057917788e-05
-1.2610196108653327e-05
-1.5025731499918038e-05
-1.142523535690998e-05
-1.393277727856912e-05
-1.3000732792534109e-05
-1.1332618555570662e-05
-1.7690435470285593e-05
-1.9905435806322203e-05
-2.1565521592492587e-05
-1.749654131799616e-05
-1.1452017815827276e-05
-6.392951377165446e-06
-3.4141071409976576e-06
-1.084685050045664e-05
-1.3752221548202215e-05
-1.4804094234932563e-05
-1.1752071600312775e-05
-1.8733221622824203e-06
1.7766105884220451e-06
5.181979531698744e-06
2.5758074571058387e-06
-4.068361022291356e-06
-5.8273235481465235e-06
-8.747550964471884e-06
-5.662748776558146e-06
-4.420062168719596e-06
-2.8884618359370506e-06
1.3283329280966427e-06
-3.5754684404309955e-06
-9.429754754819442e-07
-5.101626356918132e-07
-2.622794113449345e-06
-1.2045302355545573e-07
-6.210569836184732e-06
-9.459654165766551e-06
-1.0704353826440638e-05
-1.0627720598677115e-05
-8.01492205937393e-07
1.8518155684432713e-06
7.201761604846979e-06
8.072679179349507e-06
2.5218885184585815e-06
-2.5385537583133555e-06
-9.351424523629248e-06
-8.007165320123022e-06
-4.703683543993975e-06
-2.2851784251542995e-06
3.1497838790528476e-06
2.6633474590198603e-06
1.2898069712719007e-05
2.172280892409617e-05
2.5619106168051076e-05
2.7740168093259854e-05
1.8256685052620014e-05
1.2795050224667648e-05
1.340228004664823e-05
1.2718585821858142e-05
1.338526180916233e-05
1.072629038390005e-05
4.289510343369329e-06
-5.122496759213391e-06
-1.0587795600258687e-05
-9.776553611118288e-06
-1.2740067404592992e-05
-8.364164159502252e-06
-1.2263450685168209e-05
-2.2996543975750683e-05
-2.7864613798556093e-05
-3.145189691622363e-05
-2.4335365878869197e-05
-1.3754898191109532e-05
-8.697436783222656e-06
-9.854607128545467e-06
-2.048935004950181e-05
-2.2284909846348455e-05
-2.1150037923689524e-05
-1.7311828628407966e-05
-7.639510727130983e-06
-1.3907548463976127e-06
1.4335063838188944e-05
3.6294418805482564e-05
6.640898243404081e-05
0.00010193743185027415
0.00012553280623706087
0.00012807690757199452
0.00010521989167955326
5.5987493283282674e-05
-4.5339963890000945e-06
-5.680771062088752e-05
-8.786517150838336e-05
-9.93777468920598e-05
-9.074154922927846e-05
-7.4914640094903e-05
-5.75344861317717e-05
-3.347534629938309e-05
-1.842339804625226e-05
-1.1201843562957947e-05
-4.4212373495611246e-06
-8.77910315466579e-06
-7.907119538685947e-06
-4.337400582699047e-06
-3.473418246358051e-06
-3.7551729974438786e-06
-8.77373565799644e-06
-7.442299079229997e-06
-7.236347187244974e-06
-7.1661582978777005e-06
-6.445134204113856e-07
-1.90768594166002e-06
-1.0230753559881123e-06
-1.6185925915124244e-06
-1.7206258462465485e-06
1.5283978882507654e-07
-3.3974517918977654e-06
-1.1836007161036832e-06
-8.422048836109752e-06
-1.3506311802302662e-05
-9.832455475589086e-06
-1.1461329904705053e-05
-4.973605541636061e-06
3.984075533480791e-06
7.382804938060872e-06
9.361521051687305e-06
8.028089041545172e-06
8.229709237639327e-06
7.275570965248335e-06
1.2737435099552386e-05
2.0889907091259374e-05
2.1454083935168455e-05
2.2761125592296594e-05
2.1001221057304065e-05
1.8375453691987786e-05
2.054761932868132e-05
2.3096338509276393e-05
2.6902442186838016e-05
2.7757533985095506e-05
3.0628349918515596e-05
3.720324241385242e-05
3.434973211824399e-05
3.651828512829525e-05
3.3472091217845445e-05
2.5449009967815073e-05
2.17213683981754e-05
1.6220657357735035e-05
1.5723415231150284e-05
1.269372319256945e-05
9.458153840569139e-06
4.912496251563425e-06
-5.830124564454309e-06
-7.97729546775372e-06
-1.0835847660928266e-05
-1.0388684017925698e-05
-3.82377572805126e-06
-2.953842681563401e-06
-1.1225972684769658e-06
-3.849303652714298e-06
-1.3961456261313288e-05
-2.0540490140774637e-05
-2.6766637347463984e-05
-2.545353629557212e-05
-1.8405171999802405e-05
-1.2954700878253789e-05
-7.823351666047529e-06
-1.055522648130136e-05
-1.133759394633671e-05
-1.1872210052388255e-05
-1.0118360250999103e-05
-5.165636821402586e-06
-6.631752512475941e-06
-5.873452892046771e-06
-6.606456850022369e-06
-7.46813361729437e-06
-4.820512344849703e-06
-7.054117986626807e-06
-3.6574862178895273e-06
-5.660905571858166e-06
-5.999352879371145e-06
7.898593139543664e-07
-8.079798590188148e-07
9.187292562273797e-07
-4.430993385540205e-07
-2.6312309273635037e-06
-1.011552967611351e-06
-2.6050244059661054e-06
4.236416089042905e-07
-2.699360265978612e-06
-4.962302114108752e-06
1.662110321376531e-06
-5.175046453587129e-07
2.36462551583827e-06
-1.5917264590825653e-06
-1.1643645848380402e-05
-1.1678681744342612e-05
-1.3000165608900716e-05
-7.329819368351309e-06
2.3154598238761537e-08
6.315712653304217e-06
1.503536623204127e-05
1.7540772887514322e-05
2.201317704475514e-05
1.8025042322733498e-05
1.4810061884418246e-05
1.9224596144340467e-05
1.7325871908724366e-05
2.0354411390144378e-05
1.85557764780242e-05
1.028027600114001e-05
3.732279310497688e-06
-7.32843614059675e-06
-1.175140664599894e-05
-1.1531260042829672e-05
-1.166478773484414e-05
-4.41012878127367e-06
-4.091065306965902e-06
-7.482551040993712e-06
-1.517047405741323e-05
-2.024923617227614e-05
-2.279689317674638e-05
-2.6181728117080638e-05
-2.03071180067127e-05
-1.7530311993141368e-05
-2.0949452846252825e-05
-1.9682015249600227e-05
-2.5769337185010954e-05
-2.7334194214745366e-05
-2.4162959334717016e-05
-2.1965247356092732e-05
-1.4999005884419603e-05
-7.736721499895793e-06
9.399951522937045e-06
3.655664067991893e-05
7.714687512816454e-05
0.00012420199652751762
0.00014892609840444493
0.0001466189369239146
0.00011394592934266257
5.273117403703509e-05
-6.979863769629446e-06
-5.8069739452548674e-05
-8.732771345876245e-05
-9.578443882674037e-05
-8.821709195672156e-05
-6.581666286820109e-05
-4.6483756136694865e-05
-2.891289238959871e-05
-1.930108567194111e-05
-1.8225563962914748e-05
-1.569343817209301e-05
-1.751085756040993e-05
-1.4057298812986119e-05
-9.721690503283753e-06
-9.773915962796309e-06
-8.829056355352805e-06
-1.1713684443748207e-05
-1.1897302556462819e-05
-9.928806889547559e-06
-6.308414981504029e-06
-2.032716452049499e-06
-2.250349439236743e-06
-4.583010877468041e-07
-1.944169980561128e-08
-3.1550520134260296e-06
-3.7009069728810573e-06
-7.766375119899749e-06
-6.96914798936632e-06
-3.960662070312537e-06
-5.291968250276113e-06
-3.979014763899613e-06
-3.2792604542919435e-06
-4.020473056698393e-06
-6.498987659142585e-07
5.2086510322624235e-06
7.107630040081858e-06
6.1970655451659695e-06
1.1149620945616334e-05
7.746361802674073e-06
8.457249805360334e-06
1.816014105315844e-05
2.0202521909595816e-05
2.217959433892247e-05
2.198280662923935e-05
1.9205952867196174e-05
2.1454245484164858e-05
2.7303223077979055e-05
3.778072073146177e-05
4.027544969176233e-05
3.542540605394606e-05
3.3424303978790704e-05
2.4213659685301536e-05
2.1862981384401792e-05
2.4733482177907717e-05
2.402010954938305e-05
2.0361062411211606e-05
1.4526046015816974e-05
1.0088823501064326e-05
6.57911914458964e-06
5.586020733971964e-06
5.699803750758292e-06
4.5445824525813805e-07
-2.6172415346081834e-06
-9.733007914292102e-06
-1.6128522702274495e-05
-1.3672550267074257e-05
-1.3512294913198275e-05
-8.657718467475206e-06
-1.010514642985072e-05
-1.7194067709169758e-05
-1.6617731375845324e-05
-2.081707123124943e-05
-1.5228383404064516e-05
-7.394511840175255e-06
-9.801164083000913e-06
-9.72818986610946e-06
-1.1025697176592075e-05
-9.478762876824476e-06
-6.499839855678147e-06
-3.886135004904645e-06
-3.771985916500853e-06
-1.0135281058865075e-05
-1.273022860459605e-05
-1.2736641338051413e-05
-1.0668756885934272e-05
-3.934257961191179e-06
-1.8096659459843067e-06
4.584889438774553e-06
5.4641532187815756e-06
1.6490778307343135e-06
2.405602117505623e-07
-9.655348662818142e-06
-1.648845284307754e-05
-1.28890824271366e-05
-8.639218435746443e-06
-1.0458910537636257e-05
6.702682640025159e-07
6.197305197019887e-06
-4.6943023335188627e-07
8.202483741115429e-07
-3.4785732623277e-06
-4.996345182917139e-06
-4.658440730054281e-06
-7.955279670568416e-06
-6.0070273093515425e-06
-2.540709033382882e-06
3.333969402774528e-06
9.77312254235585e-06
1.3041323995821585e-05
1.6269525417555997e-05
1.549379680909624e-05
1.915980794819916e-05
2.2677795868730755e-05
2.0933614678142476e-05
2.172172423797747e-05
1.701451162716694e-05
1.06420510519456e-05
5.8763725974131376e-06
-1.1680363058985677e-06
-4.857612225350749e-06
-8.924153348743857e-06
-7.08116306213924e-06
-8.938151381698844e-06
-1.699350457329274e-05
-2.065595299427514e-05
-2.3479106971535657e-05
-2.1410474232652632e-05
-2.0181760419291095e-05
-1.735843022743211e-05
-1.5868112427597225e-05
-2.2615186708208057e-05
-2.4348174179067428e-05
-2.7737828759200056e-05
-3.506326777369395e-05
-3.220829341898934e-05
-2.6222795327157655e-05
-1.582529478127981e-05
-8.140859449667914e-06
-3.504681444610469e-06
8.973500712272653e-06
2.788150038668391e-05
6.058076553472347e-05
0.0001033079714716223
0.00014099495490427216
0.00015547103157587117
0.00013491899153450504
8.62070442053664e-05
1.904101077343512e-05
-3.823138945335813e-05
-7.400726622108778e-05
-9.113842622809898e-05
-8.629327601283876e-05
-7.711281568845152e-05
-6.500938013687119e-05
-4.848876176311023e-05
-3.718003847552609e-05
-2.2324555402519763e-05
-1.1563030511752004e-05
-8.988486797534279e-06
-3.764152779694996e-06
-8.376002142540528e-06
-7.039309025458351e-06
-4.879529456047749e-06
-5.41841745871352e-06
-1.7788748891689465e-06
-6.375232032951317e-06
-3.960684921366919e-06
-1.3956243947177427e-06
-5.191565378481755e-06
-2.6090694973390782e-06
-7.992545192792022e-06
-1.4581299637939082e-05
-1.540669177302334e-05
-1.3895885558667942e-05
-7.676784548493742e-06
-4.4954030045119e-06
-9.274208423448727e-08
3.994875896751182e-07
-2.7507813911142875e-06
-8.368003818759462e-07
-3.5751332916333922e-06
-3.386102207514341e-07
5.661297677761468e-06
8.232452273659874e-06
1.5054163441163837e-05
1.2899106081931677e-05
1.3495976304511714e-05
1.0130444479727885e-05
6.853964578112937e-06
1.5024832805465849e-05
1.7294993426730798e-05
2.6028081151707738e-05
3.238161332319578e-05
3.016218556695094e-05
3.1496875863012974e-05
2.911202739142027e-05
2.905568396727176e-05
2.9232838073767198e-05
2.6266195163771044e-05
2.65230144123052e-05
2.387446522789105e-05
2.4925181151047582e-05
2.3512708935413684e-05
1.999680819153582e-05
1.903844997741544e-05
1.073132159490342e-05
6.094274681345269e-06
-2.9697297350139706e-06
-1.3659938758792123e-05
-1.0669036100807716e-05
-1.3016313687330694e-05
-7.97239295025065e-06
-5.673788336935104e-06
-1.1160896747242077e-05
-1.2914759849991242e-05
-1.4791500689170789e-05
-1.3700568729291263e-05
-1.3379090546550287e-05
-1.221311299559602e-05
-8.376842515644967e-06
-7.090534836606821e-06
-3.8140734659464215e-06
-5.742285566157079e-06
-1.2494645488914102e-05
-1.820009845232562e-05
-2.586945470284263e-05
-2.1463637267515878e-05
-1.4362642787091318e-05
-1.1099710036432953e-05
-3.83915926249756e-06
-4.446448997441621e-06
-5.006798573958804e-06
-2.4438554646621924e-06
-2.619098154355015e-06
3.5174983850083663e-06
3.383605417184299e-06
8.622654149803566e-06
1.0186808594880858e-05
3.066336375923129e-07
-4.286244916329451e-06
-1.2419666632013104e-05
-1.4788000726184691e-05
-1.1605637496359122e-05
-9.77391096057545e-06
-4.591164383782598e-06
-4.315688101996784e-06
-5.9254739426251035e-06
-6.3148729623208055e-06
-7.406507961604802e-06
-2.6761093749883003e-06
-2.804599716910161e-06
-1.6949111341091339e-06
-1.5167761375778355e-06
-2.0944638663422666e-06
3.6990099943068344e-06
8.85303404629667e-06
1.3980899097987276e-05
1.4912571373315586e-05
1.2784295449819183e-05
1.4638609286521387e-05
1.2563604968818254e-05
1.4427422343032958e-05
1.493914840011712e-05
1.4622204844272346e-05
1.7096044757636264e-05
1.2278633448659093e-05
8.942175099946326e-06
7.045802021821146e-06
1.3294589962242753e-06
-8.542597242922056e-07
-6.8055436486247345e-06
-1.2376731319818646e-05
-1.8346236515753844e-05
-2.1003294250476756e-05
-1.7987337628255773e-05
-1.9824099581455812e-05
-1.7533968048155657e-05
-1.8859235638046812e-05
-2.5449293389101513e-05
-2.4505451960976643e-05
-2.8724821504511056e-05
-2.9784405001009873e-05
-3.016632854269119e-05
-3.008177134233847e-05
-2.3097564280760707e-05
-2.0620779537239287e-05
-1.2026830972899916e-05
-1.0349703643441899e-05
-8.640591090625094e-06
9.272093507206591e-06
3.605317647270567e-05
7.781037663789903e-05
0.00012381728174659656
0.0001527918352621782
0.00015371227470950544
0.00011900931758646038
6.183856248753727e-05
-3.1264719382306794e-06
-5.496661697179661e-05
-8.014970956082834e-05
-9.19804953127823e-05
-8.523507426616561e-05
-7.046122232168273e-05
-5.2806687904194405e-05
-2.9619416977766377e-05
-1.7311958458776644e-05
-9.4484636292691e-06
-5.932308340561576e-06
-1.2815364470952773e-05
-1.2858652894465195e-05
-1.3630680996357114e-05
-1.0251644198433496e-05
-1.0209494803348207e-05
-1.682919742052036e-05
-1.860059478531184e-05
-2.0506896930783114e-05
-1.4779462958358636e-05
-5.943307428424305e-06
-4.460949867279851e-07
2.8252289894226124e-06
-5.055896508565638e-06
-9.361335628454981e-06
-1.128909559611202e-05
-1.2784363320861303e-05
-5.7829619208860095e-06
-1.5689677184127504e-06
2.9588815095848986e-06
5.375895739234693e-06
4.699760552284715e-06
7.179150316005689e-06
6.201305723152473e-06
3.310689749014273e-06
3.0717058052687207e-07
-2.2663606387141044e-06
-1.205083322020073e-06
7.872280320952996e-07
7.551620456069941e-06
1.1688973700074712e-05
1.2541702744783834e-05
1.6050852082116762e-05
1.5225708580146602e-05
2.2376247216016054e-05
3.197958210421348e-05
3.409074156479619e-05
3.963655854022363e-05
3.45935974337408e-05
3.0990794243734854e-05
3.195028637037467e-05
2.9402728046079574e-05
2.747167297911801e-05
2.09952055456597e-05
2.326658022866468e-05
2.584436708730209e-05
2.4133674742188305e-05
2.578239877948363e-05
1.4475806210612063e-05
3.452265218584216e-06
-2.80859012491419e-06
-1.2594801660270605e-05
-1.5879214856795443e-05
-1.994221031509369e-05
-1.8873943531616533e-05
-1.6034297914302442e-05
-1.6837021576066036e-05
-1.4416534895644872e-05
-1.4241600183595438e-05
-1.5409272123179107e-05
-1.5678978456890036e-05
-1.5576974647046882e-05
-1.2147907114012924e-05
-1.4361930311679316e-05
-1.2206772794343124e-05
-1.5427535345224896e-05
-2.0180717115181324e-05
-1.1501070957820048e-05
-6.700286121485988e-06
1.1269139577052556e-06
3.594862619138439e-06
-4.35976869539445e-06
-6.296623951129732e-06
-8.604722438576573e-06
-6.472815471170179e-06
-2.828324227266421e-06
-7.4872334607789526e-06
-9.894388540487853e-06
-1.1408874456719786e-05
-5.058863393969659e-06
1.3554862334785867e-06
2.128788196387177e-06
1.1715137588907965e-06
-3.14237888687785e-06
-8.797620239420212e-06
-1.2760803997480252e-05
-1.0611703828544705e-05
-6.438980221901147e-06
-5.630728196592827e-06
-1.2938860436406685e-06
-6.431740757761872e-07
-7.322242367990839e-06
-8.248791800724575e-06
-8.414594390160346e-06
-4.038254928673268e-06
-2.875744712582673e-06
-6.086779876568471e-06
-3.91600917737378e-06
-7.752563988105976e-06
-4.903919943899382e-06
2.954208184746676e-06
3.5537110534278327e-06
5.923367552895797e-06
9.35811726776592e-07
2.495160970283905e-06
4.751619371745619e-06
3.2355934536099085e-06
1.1902483151970955e-05
1.582338359185087e-05
2.0065718558726076e-05
2.3879713126007118e-05
1.961214582024695e-05
1.6204309304157505e-05
6.94470395501412e-06
2.9982103342263144e-06
-3.6705375805468066e-07
-3.854705823869153e-06
-5.37447579063155e-06
-1.3766246411250904e-05
-1.2652929171963478e-05
-1.5041027040751942e-05
-2.1046300389571115e-05
-1.8208780488748744e-05
-2.076884368307219e-05
-2.1448899929055187e-05
-2.0918719542351027e-05
-2.5842255467978248e-05
-2.796731655507756e-05
-3.473294395917037e-05
-3.4558208426460624e-05
-3.209722967767448e-05
-3.017381220615789e-05
-2.035406100731052e-05
-1.498545520917105e-05
-9.624304539102013e-06
-9.811466270548408e-07
1.0031005103883217e-05
3.706957181748294e-05
6.865799105071346e-05
0.000107689063838734
0.0001387910781431856
0.00014253394385832507
0.00012667366058849439
7.716980269378837e-05
1.2156450907241378e-05
-3.982076020747627e-05
-7.788848893142131e-05
-9.115837951867434e-05
-8.324710370288813e-05
-6.872391793422139e-05
-5.4521913739336014e-05
-4.5229221768749994e-05
-3.5295067277729686e-05
-2.8983517836422834e-05
-2.0109787669753132e-05
-1.3396736449067248e-05
-1.1754229035432218e-05
-9.502562306806794e-06
-1.0760446457425132e-05
-8.681941721988551e-06
-6.505004421342164e-06
-1.2162244274804834e-05
-1.1762446206375898e-05
-1.0193111052103632e-05
-7.822982411198609e-06
-6.090874649089528e-07
4.363343350632931e-06
4.205916525279463e-06
-1.7511742953502107e-06
-2.0026070615131175e-06
-6.3214658894139575e-06
-9.612751455279067e-06
-7.556089826721291e-06
-1.0712869084272825e-05
-9.4636744734089e-06
-8.082008093879267e-06
-8.605125572103134e-06
-3.9632286643609405e-06
-2.520883754186798e-06
2.1180221665417776e-06
4.62677598989103e-06
4.562184358292143e-06
9.386439955960668e-06
1.062194314727094e-05
1.6004963640625647e-05
2.0135749991823104e-05
2.0775089637936617e-05
2.6783299631460977e-05
2.801375262606598e-05
3.016967571056739e-05
3.0992788083494816e-05
2.6947431933876942e-05
2.7669707606037264e-05
2.629153902944381e-05
2.9660711220458325e-05
3.222557256776781e-05
3.1977677622307965e-05
3.510286285290931e-05
2.8952021693839924e-05
2.0977180042791588e-05
1.4259221870815963e-05
2.966544570881524e-06
-1.30777607409982e-07
-1.186060103464115e-06
-1.1600959624047391e-06
-8.211861768359086e-08
-9.257197461920441e-07
7.395004786303616e-07
8.463674703307333e-07
-3.2652440040692454e-07
-8.683679311616288e-06
-2.585695574452984e-05
-2.6774280627250846e-05
-1.5221967260004021e-05
-1.0488894986337982e-05
-9.282022460865846e-06
-1.654727361710684e-05
-2.0205574173814966e-05
-2.053467142104637e-05
-1.996723858610494e-05
-1.3131617265571549e-05
-1.2523005239017948e-05
-8.380742201552493e-06
-5.969395033389446e-06
-9.600155408406863e-06
-5.814231599288178e-06
-7.390846008092922e-06
-2.6311211058782646e-06
3.194476221324294e-07
-2.814196250255918e-06
1.8440007352182874e-06
9.199230817102944e-07
1.3679525636689505e-06
3.480655209386896e-06
-1.2422666486600065e-06
-9.198868156090612e-07
-2.632337896102399e-06
-2.898231741710333e-06
-2.6589054868964013e-07
4.7346145493065706e-07
5.195319886297511e-06
4.926643555336341e-06
3.548059680724691e-06
-7.988232937350404e-07
-9.28038116398966e-06
-1.1338710351083137e-05
-1.4178753076521389e-05
-1.005895830985537e-05
-6.960270980016503e-06
-9.427763643543585e-06
-8.744582146391622e-06
-1.5756813922962465e-05
-1.6394718272749742e-05
-8.508412065566517e-06
-3.488889888103586e-08
1.1775805774050241e-05
1.4329829923553916e-05
1.031258295824955e-05
3.522636802699708e-06
-2.002178007387556e-06
1.6426126876467606e-06
1.3472855471263756e-06
1.4320340824269806e-06
2.8615834253287176e-06
2.943346430583915e-06
9.541598501527915e-06
1.2387760648380208e-05
1.8401203078610706e-05
2.1314889977475104e-05
1.928755625613121e-05
2.5654563387433882e-05
2.310654383563815e-05
1.6557220988033805e-05
1.0389108638264588e-05
-1.9859319309034618e-06
-9.266055826628872e-06
-1.2901606169180013e-05
-1.1397985872463323e-05
-1.4258191868066206e-05
-2.1006499878239993e-05
-2.460944858739822e-05
-2.9234819635348686e-05
-2.6704407559918764e-05
-2.163767840102082e-05
-1.975019972633163e-05
-1.4689103863929631e-05
-1.751933189098054e-05
-2.0165772525615466e-05
-2.030925008966733e-05
-2.2731197191205865e-05
-1.8256108205605415e-05
-1.2069529134350887e-05
-3.3968628940783674e-06
9.084853331842169e-06
2.357886387471808e-05
4.61416735788589e-05
7.578837619348633e-05
0.00011311891262266727
0.00013734125707287603
0.00013010570614824246
0.00010158882344057929
4.041762610995647e-05
-2.382656111876713e-05
-6.845423501999903e-05
-9.68441435134082e-05
-9.809265259264066e-05
-8.324925909164449e-05
-6.105232591835374e-05
-3.9795042539481074e-05
-2.7406811227592698e-05
-1.618984867945983e-05
-1.3671748433807807e-05
-7.4634640441217925e-06
-2.7614649980023387e-06
-5.840029416503967e-06
-3.9789194943296025e-06
-9.083397003450955e-06
-9.233569130628894e-06
-4.513855515142495e-06
-8.432955837633926e-06
-8.747887818572053e-06
-1.1016053576895501e-05
-1.3185950251681788e-05
-1.0646460395946633e-05
-1.0991183785336034e-05
-8.473937668895815e-06
-9.751070251695637e-06
-7.4671962693173555e-06
-4.549577965917706e-06
-3.5207000337322825e-06
3.5296681062391144e-06
7.54295422211726e-06
1.0852395689653349e-05
1.199183282096783e-05
7.289149152711616e-06
8.737868029129459e-06
3.675773314171238e-06
1.2026511058138567e-06
1.4038936342330999e-06
-3.838631755570532e-06
-1.3626379313791404e-07
1.988679059650167e-06
6.5269315427940455e-06
1.3822505934513174e-05
1.8794623201756622e-05
2.9429717301354685e-05
3.424676128815918e-05
3.484862497771246e-05
3.5384840771257586e-05
3.084810748532618e-05
3.1348350375992595e-05
3.0287466188383405e-05
3.2528511269447336e-05
3.6402763271325966e-05
3.442611557602504e-05
3.362854226907075e-05
2.754757485945447e-05
2.3442403744411422e-05
1.9968891479038575e-05
1.3947754496257403e-05
1.6152547118508664e-05
1.0890760449910886e-05
5.906036790293001e-06
1.6939043234742712e-06
-7.819237339390384e-06
-1.3577305480794166e-05
-1.8597644611872965e-05
-1.6856782735885645e-05
-1.485671634782193e-05
-1.808096396871406e-05
-1.593395313648216e-05
-1.652207561164687e-05
-1.2043577385156823e-05
-2.6924886924462044e-06
-2.842460844476591e-06
-1.6514912886123057e-06
-4.3472492734508705e-06
-6.017284249537624e-06
-7.062646773192682e-06
-1.5378898297058186e-05
-2.1790965774926008e-05
-3.0241739068515017e-05
-2.865527835638204e-05
-1.817431564177241e-05
-1.2349317557891482e-05
-2.8936743774465867e-06
-4.648026106224279e-06
-5.742990424550953e-06
-9.448446007809252e-07
-7.082712727424223e-08
4.09698282055615e-06
-9.642405984777724e-08
-4.852070446759171e-06
-3.6854742120340234e-06
-2.5156259653158486e-06
5.5060739896362065e-06
6.821765964559745e-06
4.606546212926332e-06
3.8801319988124305e-06
-2.0575340613504522e-06
-9.628217867430067e-07
-6.732353767802124e-07
4.1925420646293787e-07
3.796243731812865e-06
2.152086381101981e-06
3.4962823747264338e-06
-4.5244860302773304e-07
-6.827217930549523e-06
-7.777427526889369e-06
-9.477884646003076e-06
-5.179808226785099e-06
-1.340492758572509e-06
1.4060071862331824e-07
8.679918437337619e-07
-4.411917075231031e-06
-6.510282560157066e-06
-1.0112589166055841e-05
-1.2967689144716132e-05
-1.3352133578337089e-05
-1.013452890674671e-05
1.4942993402655702e-06
9.902007263917767e-06
1.8670036752155283e-05
2.227453921932465e-05
1.628088296001806e-05
1.5594714227518125e-05
1.2546717471195734e-05
1.6019080476326053e-05
1.9031311808248574e-05
1.4449910850089509e-05
1.0963905083372083e-05
3.2990359386531054e-06
-1.9138678908348083e-07
-1.012377879305859e-06
-1.869013885880122e-07
8.144793355313595e-07
-7.6791159244749e-06
-1.0722374440774729e-05
-1.260958219972963e-05
-1.6435355064459145e-05
-1.3123954545335437e-05
-1.4561660123035836e-05
-1.811319805256062e-05
-2.3368652932731493e-05
-2.9546368750743568e-05
-2.7857800091624085e-05
-2.80419649243413e-05
-2.3314346663028118e-05
-1.6291544511659595e-05
-1.544283486509812e-05
-9.03126476714533e-06
-4.261072376721131e-06
1.7519371340313228e-06
1.6649077224428765e-05
3.6045148817720474e-05
6.455283539708034e-05
9.809346897782234e-05
0.00012511880481724802
0.00012864576444826525
0.00010637650780154218
6.394873628323694e-05
3.259955292378436e-07
-5.574810973030253e-05
-9.289542106216686e-05
-0.00010794208026254637
-9.804947342217929e-05
-7.620247561135329e-05
-5.176300442144566e-05
-3.4765101077027794e-05
-2.588124664271163e-05
-1.4607536854782666e-05
-8.815643582238408e-06
-4.584898192661058e-06
5.498252448887797e-07
-2.6450110226505785e-06
-2.2558496084457147e-06
-1.7896255712912534e-06
6.972593382670311e-07
-8.565862117393408e-07
-5.025669338465377e-06
-5.042756356488098e-06
-9.994352467401768e-06
-9.302855914938846e-06
-5.854945015926205e-06
-8.371235139748023e-06
-3.937224619221524e-06
-6.88064187670534e-06
-8.820830203148944e-06
-8.684842214279342e-06
-1.1215533049835358e-05
-8.527489853804582e-06
-6.854730372651829e-06
-2.8570786980708363e-06
2.587812446108728e-06
4.299685770092765e-06
8.754616146688932e-06
7.952803230182326e-06
1.026447876029124e-05
1.0054112976831675e-05
2.6298899911125773e-06
4.627044177141215e-06
4.269599799044954e-06
8.536443260709348e-06
1.8608804793984746e-05
2.272520919177623e-05
2.8078460445613018e-05
3.197070066107699e-05
3.527099386246846e-05
3.4519125165388687e-05
2.869850550268893e-05
2.6683963142204448e-05
2.183948606671038e-05
2.678788655430253e-05
3.5871088016392605e-05
3.7989073689459474e-05
4.2270410176570294e-05
3.528282115894399e-05
2.7627036160993157e-05
2.0449468706829066e-05
9.13577116534725e-06
4.58032593542157e-06
1.7789432149584172e-07
-3.10882546727953e-06
-2.84298630504054e-06
-6.891112320772663e-06
-8.677011123836564e-06
-1.3062722132417548e-05
-1.2301407650738838e-05
-1.2983322562831745e-05
-1.633404394851823e-05
-1.2110360671613307e-05
-1.3447241713038238e-05
-1.3188703405830893e-05
-1.2225197679072153e-05
-1.7001976630126592e-05
-1.2358913295429375e-05
-1.2559275319290464e-05
-1.1836179851343331e-05
-9.86550571724365e-06
-1.4083393807595712e-05
-1.1094720434812189e-05
-8.042347872105893e-06
-6.079510399104038e-06
-5.632223064822028e-06
-1.0027415100921644e-05
-9.183341035168269e-06
-7.898793569438567e-06
-3.407327085369616e-06
8.591059668106027e-07
-3.4414365472912323e-06
-3.57741873813211e-06
-9.035913194566092e-06
-1.4123173741609207e-05
-1.2846493291363004e-05
-1.1999517937510973e-05
-2.7212228133066674e-06
6.1849684698245255e-06
1.3924260542808042e-05
1.3285894965520129e-05
1.7964248399948701e-06
4.4498187889985275e-07
-3.789574520851602e-07
-7.023600119282492e-07
3.5994931977256783e-06
7.197855893537053e-07
-5.304858632371179e-07
-1.1858602420034003e-06
9.59604449235485e-08
-4.6471711812046124e-07
-9.48476792927977e-06
-1.5190927570074564e-05
-2.089153292672563e-05
-1.8576853221929923e-05
-6.192958608153276e-06
2.8103324893891113e-06
1.2031822734570596e-05
8.449867209492368e-06
1.2408457905621617e-06
-7.506889460273669e-06
-1.6516584423698077e-05
-1.137131403083913e-05
-4.905753598904994e-06
8.942498652686481e-07
1.0096801133840927e-05
1.2429858429641172e-05
1.8438766460349143e-05
2.0234955741216254e-05
2.178920374262816e-05
2.3509476022809395e-05
1.7353118778373755e-05
1.7545105492899893e-05
1.4112630992713093e-05
9.414920441486174e-06
5.925259301875485e-06
-1.1623916407188517e-06
-1.7198703972098883e-06
-6.436810963350581e-06
-9.444749025533383e-06
-1.0100135114043951e-05
-1.907963678604574e-05
-2.039463561231969e-05
-2.330627262381313e-05
-2.4124891297105933e-05
-2.157085202725284e-05
-2.2768013536733633e-05
-1.9210324239793408e-05
-1.9736686226679012e-05
-2.040487572685379e-05
-2.0820286749767547e-05
-2.7979230026176083e-05
-3.0041318723306176e-05
-3.165910459301813e-05
-2.7994246238449705e-05
-2.0269726519472897e-05
-8.219778123930155e-06
1.5401110317725397e-05
4.1522322703713144e-05
7.986081948274659e-05
0.00012475024686864344
0.00015230163876367442
0.00015724132651939726
0.00013237398627552466
7.695497765780601e-05
1.1105733278782282e-05
-4.17244878008205e-05
-7.123879072423733e-05
-8.458287527446373e-05
-8.037645238800906e-05
-6.794280216126936e-05
-5.9485874999154476e-05
-4.4807615950048785e-05
-3.114990829544695e-05
-2.4869049298104073e-05
-2.0657861227846297e-05
-2.2762575099477544e-05
-2.0133065959271335e-05
-1.6627610648356494e-05
-1.0649553814801038e-05
-3.268472369200026e-06
-4.636640142052784e-06
-5.491435672411171e-06
-8.990023843580275e-06
-7.967460419422423e-06
-3.1763606784807052e-06
-4.269353439667611e-06
-2.062154635495972e-06
-3.2631992326059844e-06
-2.5278202429035446e-06
-2.7404379352446995e-06
-8.207203904930793e-06
-9.898754001369525e-06
-1.3789141917186498e-05
-1.0218411716778064e-05
-3.3581990237507853e-06
-3.136955228910665e-07
3.189501626366109e-06
6.261137741603306e-07
-2.137803562618501e-06
-1.5487663631574833e-06
-3.2484634857610217e-06
3.462184508862265e-06
9.659342026679951e-06
1.3819324067299021e-05
1.9588552390814584e-05
2.014885797052557e-05
2.190288000747387e-05
2.1592693769889593e-05
2.4771145945123862e-05
2.878933594274713e-05
2.6575309789222956e-05
2.988524101965595e-05
3.0419666131820122e-05
2.9981449188198894e-05
3.188275104548666e-05
2.8216452960805327e-05
2.9903300969635893e-05
2.5859817696982645e-05
2.1494478801287187e-05
1.8806888419931056e-05
7.83913787927304e-06
5.968218601992703e-06
7.500874289689818e-06
7.931104164526914e-06
1.019489900500048e-05
6.164270416775253e-06
4.650397954719665e-06
1.7731921388985938e-06
-1.0930025382549502e-06
-4.7013237463033875e-06
-1.5308179285966617e-05
-1.8327871657675132e-05
-2.039084688476578e-05
-1.8481692222849233e-05
-1.2390617939672666e-05
-1.4352352081914432e-05
-9.89780721738498e-06
-8.401964691984176e-06
-6.928766765668115e-06
-6.867535375931766e-07
-6.954938612580008e-06
-9.549631727168162e-06
-1.3825538985656749e-05
-1.9808584283964592e-05
-1.932443592522759e-05
-1.872117798029649e-05
-1.3002727314415097e-05
-8.505993150720315e-06
-3.3949181670323014e-06
6.893450290590408e-07
-3.273117840763007e-06
-2.1873809146200074e-06
-7.79253457494633e-06
-1.1251091450503736e-05
-4.70057614165853e-06
-1.6353601495211478e-06
6.283368747972418e-06
9.008727261061722e-06
7.412748459501017e-06
6.413840424102091e-06
3.887842012773035e-07
3.1580833592670388e-06
1.989850716199726e-06
-1.5371989547929843e-06
1.0970446737701423e-06
-3.7029998338766745e-06
-4.398618216328032e-06
-5.522372816813004e-06
-4.836284688281012e-06
-3.205524080840405e-06
-7.262552571773995e-06
-6.160856173664797e-06
-4.570446662910399e-06
-2.3597023073307355e-06
1.744465293995745e-06
6.151310572022339e-07
2.4036670538407634e-06
-2.7400470798966126e-06
-7.866948863011203e-06
-9.18620662559988e-06
-1.2493197345975204e-05
-8.66931759446743e-06
-2.4732188421694445e-06
4.271786679055367e-06
4.2760418637044495e-06
-1.9459465647742036e-06
-2.1129692413524026e-06
-6.08459288287122e-06
-8.371750595870253e-06
-5.363802642932569e-06
-9.23711206723965e-06
-9.553521067573456e-06
-4.443804300535703e-06
2.3070423367244075e-06
9.394555149810913e-06
1.4634114904765738e-05
1.5668785863454104e-05
1.2617018910532352e-05
1.1529552693900769e-05
9.448792866351141e-06
5.950382274022559e-06
1.0748908266577928e-05
8.425794931099517e-06
4.375790013000369e-06
3.05313380977168e-06
-1.140982135439117e-06
3.8798862078692764e-07
-5.805931095892447e-07
-1.2032498943881365e-06
-4.106136657355819e-06
-1.3769568113275454e-05
-1.56107507791603e-05
-1.7315426703135017e-05
-1.7537465055283974e-05
-1.599670838459133e-05
-2.0859736309830623e-05
-2.232704844118416e-05
-3.0487795129374717e-05
-3.5604715890258376e-05
-3.4549619840618107e-05
-3.50540452700443e-05
-2.6477948949832353e-05
-1.8953384710584942e-05
-1.920847500969103e-05
-1.2692359405264142e-05
-6.343540576381201e-06
1.1093117336713476e-05
4.069584463195497e-05
8.262725168606266e-05
0.00013368176792027953
0.00016434727331215981
0.00017022465613081295
0.000143857422358451
8.315653815316182e-05
1.2496605222622748e-05
-4.673659816489817e-05
-8.173731100669102e-05
-9.753858557814965e-05
-9.129881857461442e-05
-6.94018684725961e-05
-5.5560105238328106e-05
-4.200088039851835e-05
-2.690221003831539e-05
-1.8572677618067246e-05
-1.0344007364437857e-05
-8.116285584947036e-06
-9.176465141536028e-06
-1.18130916462178e-05
-1.501754559285473e-05
-1.3845602097717347e-05
-1.391729836086597e-05
-9.9071091881342e-06
-1.3504435514732904e-05
-1.3690130572285852e-05
-6.868487275824009e-06
-5.876666136828135e-06
1.3461279877446941e-06
4.3860131881956477e-07
-4.695539360000112e-06
-6.112981623118685e-06
-1.003185718673194e-05
-5.740412802879291e-06
-4.394639177007775e-06
-5.525714414034155e-06
-4.968287726114795e-06
-8.22707045244897e-06
-2.760875190688239e-06
-4.316070771892555e-07
1.6196883052543853e-06
5.833366117258265e-06
1.3877516948923585e-06
3.547665983205661e-07
2.877118959077052e-06
4.188904540569638e-06
9.355162433166697e-06
1.1002466635545716e-05
1.6442564174212748e-05
1.9021691286980058e-05
2.052915419881174e-05
2.2053743464311992e-05
1.736841522870236e-05
1.745241900152905e-05
2.1196424086156185e-05
2.9036420073680347e-05
3.701754940266255e-05
3.596899364310957e-05
3.4849212624976644e-05
2.891972587804048e-05
2.442084996800986e-05
2.263143437630788e-05
1.425676555300015e-05
1.3078314509584743e-05
1.067596326720377e-05
6.5945513370024855e-06
8.401802233493072e-06
2.994171154568903e-06
-2.7459657303552376e-06
-4.024165832561266e-06
-9.254336532649177e-06
-1.6079558690762497e-05
-2.3472601355933875e-05
-1.7193336248055857e-05
-1.1530238339219068e-05
-2.02603405341506e-06
8.412145803049498e-06
2.130725874849304e-06
-2.93214259272645e-06
-8.82218216702313e-06
-1.3783337067252432e-05
-1.5263985119418066e-05
-2.2405738377528905e-05
-2.575554754002951e-05
-2.2983595954428893e-05
-1.5682176922382496e-05
-1.4200545592757408e-06
4.575165689857386e-06
6.299154620137415e-06
3.097419494224596e-07
-1.9530259578459663e-06
-1.103637714550132e-08
-1.143753365795419e-06
1.956033770511567e-06
-2.895336706387752e-06
-8.681409212840663e-06
-4.927842951474304e-06
-3.8299161815302796e-06
4.573418891595793e-06
4.85041789488605e-06
2.3569101585962926e-06
1.115806639973016e-06
-7.967688020471542e-06
-7.453125135725713e-06
-7.2216091666632565e-06
-9.249162985724979e-06
-1.8481837287254166e-06
1.0852370451175375e-06
4.791970809492341e-06
6.7286923695064615e-06
5.46960734482127e-06
3.658644459392235e-06
-3.798741317950771e-06
-6.351919751068635e-06
-5.612004656541103e-06
1.0989356269419659e-07
7.134923635021551e-06
5.90005208778166e-06
4.3630863046928425e-06
-9.1084734776814e-07
-5.7758536513574654e-06
-6.551584874614491e-07
-8.859850595399621e-07
-3.2897934261200135e-06
-3.15995896471577e-06
-5.342982035472232e-06
-4.923325263916922e-06
-9.315692750533344e-06
-1.214861686094082e-05
-1.653262893341889e-05
-2.1361242602324637e-05
-1.821626437958912e-05
-1.8745740931080945e-05
-1.872493317023327e-05
-2.1912598867857014e-05
-2.5238735247512523e-05
-2.4400531287938065e-05
-3.063706276407174e-05
-3.1321526194005855e-05
-3.0308444252113986e-05
-3.0094437761363224e-05
-2.220328985913511e-05
-1.661051078372111e-05
-5.789949796053406e-06
1.585829977557296e-05
4.751041535655531e-05
9.30927799345227e-05
0.000136059175133596
0.00016391494466461154
0.00016013844424378476
0.00012689829770806682
7.113171977835009e-05
3.161527502015815e-07
-5.5163804745461675e-05
-8.709746316526434e-05
-9.62098924901511e-05
-8.001540300028864e-05
-6.0894044963788474e-05
-4.464248161184514e-05
-3.324173121654894e-05
-2.7613666134129744e-05
-2.046600025096268e-05
-1.806473358101357e-05
-1.4184096812641656e-05
-1.4055732549422828e-05
-1.571352220253175e-05
-1.5440128208865644e-05
-1.910370554014662e-05
-1.5431606584570545e-05
-1.0784441769828845e-05
-9.733384558785474e-06
-6.146705004539399e-06
-7.99071403889684e-06
-4.071648959325103e-06
-1.3836601056027575e-06
-4.982414338883245e-07
2.566651346569415e-06
-1.4462095805356512e-06
-2.830626272043446e-06
-4.309899850341026e-06
-5.390538149185886e-06
-5.298090854921611e-06
-8.098498142317112e-06
-2.444811229906918e-06
-9.182126632367726e-07
-1.1215614676984842e-06
1.0859091617021477e-06
-5.8903433455270715e-06
-5.185704708310368e-06
-3.6377637115947437e-06
-2.0695506464107893e-07
6.6890949028675095e-06
8.472450872432091e-06
1.463091882669687e-05
1.8902687656918715e-05
2.1861220943719673e-05
2.7807407491309277e-05
2.8503155135695124e-05
3.190542395259399e-05
3.1330700494436314e-05
3.229866445053631e-05
3.8008567344149924e-05
3.5948483287029376e-05
3.646938193924143e-05
3.2567518132964324e-05
2.415333722183277e-05
2.5731363393788342e-05
2.3250465801538667e-05
1.7116763729063678e-05
9.674034004092391e-06
2.6626094040693715e-06
3.5125790418533143e-06
4.163419362157583e-06
9.272145803151943e-06
9.03354759884678e-06
2.0215253471178585e-06
-3.870289788210357e-06
-1.372847782477038e-05
-2.060058056940761e-05
-2.2220579239728977e-05
-2.0922571366099874e-05
-1.696413107765693e-05
-1.8532325611886336e-05
-1.770898813902022e-05
-1.6851241070980905e-05
-1.3750101857112895e-05
-5.6871535889513325e-06
-4.651776293940202e-06
-3.5000804246010375e-06
-6.930095537427405e-06
-9.577144965078332e-06
-8.116675871860934e-06
-1.1628168181232468e-05
-7.184189030340349e-06
-5.393972287492943e-06
-7.5766653253594995e-06
-6.207936849023099e-06
-1.0181616403315275e-05
-1.0273546081407403e-05
-7.652896329091163e-06
-5.234681225374516e-06
-2.314962671334797e-06
-2.6899493832388544e-06
-3.037780516024213e-08
1.1370528909537825e-06
-1.088319322661846e-06
-3.9013241348584415e-07
-5.624143113891478e-06
-3.830113087133213e-06
-1.3997963606016128e-06
-1.5549193221886526e-06
7.58965825298219e-07
-3.116201696684584e-06
-1.75217678588524e-06
-8.88407612364972e-07
5.684291863872204e-07
5.364077651393018e-06
4.371835302663385e-07
-8.552779036108404e-07
-8.380560529985814e-07
-2.7098247983303736e-06
1.9348462956259027e-06
-5.882259301870363e-07
-1.295458105232683e-06
-5.588645649368118e-06
-1.0998928246408468e-05
-1.10912958461995e-05
-1.7724350982462056e-05
-1.6770792058196093e-05
-1.1004135558323469e-05
-8.83969335063739e-06
-6.858745109639131e-07
6.692037004540907e-07
1.3281926385388942e-06
1.3171984392101876e-08
-2.0656194692492136e-06
4.3142063077539206e-07
-2.979611508635571e-07
3.315358753752662e-06
5.902213843000936e-06
7.73420583755069e-06
1.3289938692651049e-05
1.18040890129123e-05
1.5028325947241683e-05
1.7931217371369712e-05
1.6706453038750624e-05
1.7970306430470373e-05
1.2061456232004275e-05
8.199034709832631e-06
3.3432118016207824e-06
-3.7847909197807894e-06
-3.421809424253297e-06
-1.008096933219349e-05
-1.5035694445941772e-05
-1.829625739446783e-05
-2.051109106560034e-05
-1.8164302446166403e-05
-1.8722788354352815e-05
-1.4111144082562532e-05
-1.269200868136977e-05
-1.4469324469246203e-05
-1.3388922525336966e-05
-1.8613534621181316e-05
-2.498295123132266e-05
-3.1409426014761266e-05
-3.187035281371209e-05
-2.4598831146249722e-05
-1.8887472606365918e-05
-8.280283623207652e-06
-2.714041556828306e-06
5.865741513844114e-06
2.9920039310127322e-05
5.476933972659026e-05
9.27498124383419e-05
0.0001293631493126668
0.0001405428959060373
0.0001284178437117589
8.534538858384622e-05
2.2463706386588456e-05
-3.617140782807837e-05
-7.631191408563609e-05
-8.978149116956047e-05
-8.929201908358664e-05
-7.149608325107693e-05
-5.536082028356759e-05
-4.6989598786240094e-05
-3.101683626027807e-05
-2.4295689968312217e-05
-1.970938365047914e-05
-1.1845943049593188e-05
-9.33261935642804e-06
-4.1309472180728335e-06
-2.3718444026599173e-06
-2.768072135950206e-07
-5.3882514521319536e-06
-1.1715030836967344e-05
-1.1684829587466083e-05
-1.4615743566537276e-05
-9.916864200931741e-06
-8.896858844309463e-06
-1.0145655778615037e-05
-6.236660055947141e-06
-8.293632845379761e-06
-3.250724603276467e-06
-8.81155983734061e-07
-2.7794902734967764e-06
-4.6333343561855145e-07
-6.295415914792102e-06
-9.318918046119506e-06
-9.238701750291511e-06
-8.097705631371355e-06
5.965580385236535e-08
2.2087969000494923e-06
7.53013091525645e-06
1.031315275668021e-05
8.066880127444165e-06
1.266985702841339e-05
1.0494535217731027e-05
1.1494099908304634e-05
1.3617971262647188e-05
1.4023737435309158e-05
1.9308391074446263e-05
1.8210327880296973e-05
1.8120727531822922e-05
1.7289656625507632e-05
2.1508315171558934e-05
3.062099528960971e-05
3.1704495427220536e-05
3.400626962957176e-05
3.409365058359981e-05
2.8004051046082168e-05
2.6573551053843403e-05
2.3875387569205486e-05
2.2818873844698828e-05
2.0027644268338918e-05
2.4900295784391346e-05
3.082570526657946e-05
2.415940093669633e-05
1.8586653936836228e-05
6.248662316465925e-06
-4.7155076572380494e-06
-3.4933269716930226e-06
-6.266762852646934e-06
-4.295854296287871e-06
-7.172875257310807e-06
-1.3651544122694759e-05
-1.3107854897498328e-05
-1.9390934767216095e-05
-1.9701872588484548e-05
-1.7639288898863015e-05
-1.6855655417202797e-05
-1.2621598216355778e-05
-1.4267677670432022e-05
-1.4758404518033785e-05
-1.497624157309474e-05
-1.4472182670033362e-05
-6.341177595459158e-06
-4.856031864619581e-06
-1.9629580947366776e-06
-2.9927106197646935e-06
-7.666788405913394e-06
-4.460438049136428e-06
-5.581859113590326e-06
-4.427968633535784e-06
-4.398539886096842e-06
-6.445408075705927e-06
-5.1337269724172074e-06
-8.207761993617169e-06
-8.540093517694913e-06
-8.761902790865861e-06
-6.476530984400597e-06
-2.0309274759711116e-06
-3.437770942582574e-06
9.205261903844075e-07
1.262687987946265e-06
1.8475932392902905e-06
9.073962928596302e-06
5.084694976176252e-06
-2.7059991225542035e-07
-4.6927113999117864e-06
-1.0156092344004719e-05
-1.198421387016424e-05
-1.1267146646787296e-05
-3.531342258611403e-06
-3.1578181278746342e-06
-1.6613530533504672e-06
2.125282549059193e-06
-5.438085395326198e-06
-4.878145318798488e-06
-3.0770715966355056e-06
-5.1879677585020545e-06
-1.00042825579294e-06
-2.796860940179613e-06
-3.5098330499749864e-06
-7.722995860603987e-07
9.52557002165122e-08
1.6607508541710558e-06
-6.974258894842933e-07
-3.5225630199420266e-06
-7.322003511944786e-06
-6.871365940241958e-06
-4.165696168456634e-06
-4.916241209684813e-06
-1.6058748997238581e-06
1.988201574931736e-06
6.291533395597071e-06
1.3428555121208774e-05
1.1929823244827276e-05
1.2724326438728895e-05
1.0420369449093414e-05
7.96024880855839e-06
1.5130207543734286e-05
1.5174209124779736e-05
1.6409995737376448e-05
1.5259446968229895e-05
8.464973802801978e-06
6.4726916662039e-06
-4.463574896362843e-06
-1.3953946677247586e-05
-1.9768930769714643e-05
-2.379669376750826e-05
-1.8657616578821035e-05
-1.4764258708055422e-05
-9.997322536037245e-06
-1.2600463378475979e-05
-1.8194099084212212e-05
-2.1174301309656585e-05
-3.047166853775707e-05
-3.492093537715846e-05
-3.211624732557539e-05
-2.9599208460240334e-05
-1.9072018517363176e-05
-1.3449123230202531e-05
-9.205376727550174e-06
-6.953656338737346e-06
-1.590022407071956e-06
2.1674447680197773e-05
4.9688672675074486e-05
8.785629131580208e-05
0.00012866342274264753
0.0001448131664574248
0.00014035349704499822
0.0001047982594855057
4.5586357828142354e-05
-1.2639139413295197e-05
-5.956940401574684e-05
-8.31557985065956e-05
-9.1709328557954e-05
-8.268717090231803e-05
-6.666296474122646e-05
-5.192855905988836e-05
-3.1516575063506025e-05
-1.967499088095792e-05
-1.4781046388634422e-05
-1.2461848086786631e-05
-1.3452082839648938e-05
-1.2298145293243579e-05
-1.325291179909982e-05
-6.474040333159792e-06
-7.935667781566735e-06
-1.2736106327793095e-05
-1.1799893968600372e-05
-9.592136279934493e-06
2.698106982279569e-08
5.6929260381366475e-06
3.0138598958728835e-06
-2.7237687163506052e-06
-1.2747923165079555e-05
-1.376759939830663e-05
-1.024078017053398e-05
-6.469338131864788e-06
9.702969236968784e-07
2.212789013356087e-06
4.234922812429431e-06
3.510838268994121e-06
9.582918210071512e-07
-5.464646619657287e-07
-3.482456122583244e-06
-3.6365622690937016e-07
1.6767878605605802e-06
7.812561761966208e-07
5.103586090626777e-06
5.746741635448416e-06
8.849454502524168e-06
1.0772900395750185e-05
1.2705056747108756e-05
1.6541670674996567e-05
1.809313255307643e-05
2.4354410015803296e-05
2.9493045303752297e-05
3.2170605777537276e-05
3.48763653619244e-05
3.2748635817370086e-05
3.303798575871042e-05
3.0351056807376153e-05
2.5858178446469537e-05
2.6959037541018915e-05
2.0541045955724258e-05
1.8221687696495792e-05
1.5113111203390872e-05
9.295925451624498e-06
8.853711960910005e-06
6.38917435935582e-06
1.1019107319043542e-05
1.3531931244870066e-05
1.0652422247403592e-05
8.977925517683616e-06
-2.252185481665947e-06
-1.2153663305980444e-05
-1.765217837146338e-05
-1.954982917595771e-05
-1.333366776634648e-05
-1.1065848184443894e-05
-9.712925702842767e-06
-1.2228305536154949e-05
-1.646347982386942e-05
-1.199247344629839e-05
-1.0804581052070716e-05
-8.198158752747986e-06
-7.213157118712843e-06
-1.034919910125609e-05
-9.003129093798634e-06
-1.159852217824664e-05
-1.3294100995153713e-05
-1.4158283761389612e-05
-9.103323577619449e-06
-1.345731106994208e-06
1.0107702337336377e-06
4.0982946529766195e-06
2.791576548588637e-06
-2.5548895337124122e-06
-1.3479074141287128e-06
-3.523298801155761e-06
-5.437747859105002e-06
-9.48246758980531e-06
-1.2205376037854876e-05
-8.512078693456715e-06
-1.0054223594124778e-05
-4.635994855561876e-06
2.1694798988391994e-06
1.5344459143307176e-06
6.661972747679101e-06
7.066265652611037e-06
6.514521487588354e-06
6.156487302177993e-06
2.0952660406692303e-06
1.0906346687988844e-06
-8.963439995568478e-06
-1.0850783837668132e-05
-9.320339358964702e-06
-1.040321717482584e-05
-2.715213554438378e-06
-8.94564777809137e-07
-2.5669371552794473e-06
-2.4045347117862548e-06
-5.7969534736912465e-06
-6.611471462747431e-06
-6.323779643935268e-06
-4.232279934512917e-06
-2.7395509505367954e-06
-3.0019489258847898e-06
9.355968586532981e-07
8.747055062485742e-07
1.6523791828149115e-06
-3.40870656145853e-08
-5.732748263653775e-06
-4.862224159296602e-06
-6.165858394524548e-06
-5.32673334419087e-06
-3.6230176192475483e-06
-2.874513029382797e-06
3.473474521342723e-06
6.197221296133648e-06
1.3473238141159527e-05
1.599829067799874e-05
1.3118157312419498e-05
1.4907318359291821e-05
1.383206108585e-05
1.4947233239581692e-05
1.705743181901198e-05
1.5782480886628036e-05
1.5746058011245623e-05
1.0207128411821031e-05
6.8803325348199e-06
-5.583046913670842e-07
-8.537601843272569e-06
-9.889930538520275e-06
-1.3467366784425394e-05
-1.5981970136635937e-05
-1.7278248947150132e-05
-2.22192517185249e-05
-2.4698262336642074e-05
-2.8647992962760327e-05
-2.739923115768761e-05
-2.498366018244269e-05
-2.6583366434351774e-05
-2.4619803980385768e-05
-2.9323579610718298e-05
-3.3556594075889734e-05
-3.186204332905618e-05
-2.7418765853326477e-05
-1.8876973172154976e-05
-1.4741898098691308e-05
-4.908474465992185e-06
1.3993417724122992e-05
3.8546377140846744e-05
7.754741295684653e-05
0.000116815355113431
0.0001494110233579704
0.00016093546412321302
0.00014216435056368937
9.964113769456162e-05
3.647072912826843e-05
-2.2142684997561446e-05
-6.532034490192018e-05
-8.777021446348954e-05
-8.815299088382744e-05
-8.178661084912164e-05
-6.358844859732926e-05
-4.762381740874844e-05
-3.638868042799004e-05
-1.9795543380496383e-05
-1.5850550312279665e-05
-1.0561271210463019e-05
-7.519881023654307e-06
-1.0900521488110826e-05
-9.228408316630521e-06
-1.4432055877477978e-05
-1.7372495790368703e-05
-1.4610981907026144e-05
-1.286965812141716e-05
-7.30536282844696e-06
-4.6844759253872326e-06
-1.718382804938301e-06
-2.341945673833834e-06
-5.289950308906555e-06
-1.335493379883701e-06
-3.401593744456477e-06
-5.145713089405035e-06
-4.6501306769641815e-06
-9.595006531526451e-06
-7.709566716584959e-06
-6.901318784002797e-06
-4.985378495803161e-06
1.2414203638400068e-06
3.034241217392264e-06
3.9590480582774035e-06
8.310382781928638e-07
-6.920596433701576e-07
-3.603578306865529e-06
-6.227214612408716e-06
9.743770306158694e-07
5.105813556838257e-06
1.2797721410606755e-05
2.1392352095972456e-05
2.2491457684736815e-05
2.7458828185444872e-05
2.8496161007751653e-05
2.9553830586337426e-05
3.0419657491620455e-05
2.692307327833987e-05
2.8064062462362926e-05
2.5171917741317884e-05
2.5762814402696677e-05
2.5513134346510924e-05
2.2334959680847533e-05
2.3754382482366054e-05
1.7280991642110166e-05
1.2084668810530275e-05
9.762435752236343e-06
6.870222023280803e-06
1.207690991122945e-05
1.1873604648826586e-05
7.993372719283798e-06
1.3434023458103184e-06
-5.4335866934707155e-06
-6.868983973618015e-06
-9.246122203876439e-06
-9.684983865554386e-06
-9.825066968005558e-06
-1.457047142139345e-05
-1.1894153999492119e-05
-1.248641592610511e-05
-1.091973501843313e-05
-9.498653639639087e-06
-1.074388990218722e-05
-9.894425829770626e-06
-1.3245841614661913e-05
-1.255314850823197e-05
-1.1007032298948616e-05
-9.575702961228671e-06
-4.8187415586653515e-06
-4.075638116773916e-06
-1.981049649657507e-06
-1.407702598044125e-06
-5.886367716811947e-06
-7.720693133705936e-06
-1.0927136031568807e-05
-1.0657682764758647e-05
-7.681106239942892e-06
-1.7333073856207193e-06
4.245067430019844e-06
3.157121454933076e-06
3.1527351893601008e-06
2.7938328912568977e-06
-1.885147753455385e-06
-2.2145509319670964e-06
-3.0151772989484016e-06
-9.606724233890418e-07
-1.4778520380787086e-06
-1.4806710169068538e-06
1.951958552126598e-06
-8.357352498933324e-07
-1.1740461332010454e-06
5.397400855144951e-07
-2.5461031327722594e-07
1.1321667443553451e-06
-1.760810391715495e-06
-4.268059115020151e-06
-5.0416344947734615e-06
-8.128464060064289e-06
-4.066199835506268e-06
-1.948258272932435e-06
3.079802581851254e-07
9.819209481065627e-07
-8.044470405366155e-07
-2.6612710826157127e-06
-8.658580213705136e-06
-1.0423656476632459e-05
-9.554273788126011e-06
-1.2891187566310691e-05
-9.433566901861923e-06
-5.433067371996003e-06
3.705615654325811e-07
4.8809041572894785e-06
6.046139560567099e-06
3.985163289144111e-06
-3.8653988667647354e-06
-6.4431251303176396e-06
-4.808914127352182e-06
-5.609937147710298e-06
1.2733357834804337e-07
3.2771262112873956e-06
9.330495345238887e-06
1.6485031096635794e-05
1.8750770209408074e-05
2.1684517946596316e-05
1.8568988252809504e-05
1.587825545357191e-05
1.2964569009454863e-05
1.000391080197005e-05
1.1301828180876328e-05
7.273627034010133e-06
4.4753899146599e-06
2.8653471417783294e-07
-9.990218245548022e-06
-1.4046050978322455e-05
-2.1595392013296077e-05
-2.2441244368565094e-05
-2.1031353071521153e-05
-2.4918611302382487e-05
-2.0991802330172504e-05
-1.8112232623934688e-05
-1.868811943950277e-05
-1.9227176039748883e-05
-2.3883498556642735e-05
-2.794729289234965e-05
-3.398524631847977e-05
-3.482192926185235e-05
-2.9026743959548185e-05
-2.49763028250527e-05
-1.546158102883055e-05
-7.415215577566414e-06
5.101720375932928e-06
2.4723856313357828e-05
5.321800551882916e-05
9.25952965644683e-05
0.00013063922301626008
0.0001537773466679937
0.00015135321939396817
0.00011806502539002395
6.436589842451212e-05
2.2607351866099634e-06
-4.6503756266247365e-05
-7.840902617317624e-05
-9.293433458879008e-05
-8.487703507853439e-05
-7.259928725034115e-05
-5.573685768922587e-05
-3.834578330952354e-05
-2.8245339876775688e-05
-1.8285027977071877e-05
-1.6749059909670905e-05
-1.5083989183040103e-05
-1.183278982352931e-05
-1.0582483014331956e-05
-4.2502407495703665e-06
-7.916096137705608e-06
-9.897724567053956e-06
-1.1566252965167223e-05
-1.3080118719699385e-05
-4.942983650835231e-06
-4.520465381574468e-06
-5.159070155968948e-06
-2.9391527505140402e-06
-6.443295092140033e-06
-6.000024427521566e-06
-5.484927100951609e-06
-4.7775766915947315e-06
-2.0610905266948976e-06
-3.345678919686179e-06
-2.9086221502439003e-06
-4.668453698286612e-06
-8.493795007780136e-06
-9.6071961479538e-06
-1.0410853292341926e-05
-7.843510161364975e-06
-4.082804139216023e-06
2.879603925975971e-06
8.808554753159115e-06
9.59462988703308e-06
1.0365965977143787e-05
7.108939712452411e-06
7.748084613012907e-06
1.3789657828056079e-05
2.4415687676082598e-05
3.333541121719463e-05
3.202529887857963e-05
3.1105551215659943e-05
2.8152202048659092e-05
2.5608132546039997e-05
3.058563413560478e-05
2.9843529205209052e-05
2.898748289226205e-05
2.7379945322536514e-05
2.3667102368563064e-05
2.5362315568600025e-05
2.0449387989174284e-05
1.71871447491867e-05
1.5308130855373747e-05
8.734731522963557e-06
7.514800699937041e-06
5.1721466434173635e-06
3.554289946805511e-06
4.413910460243642e-06
-4.9240043153986335e-08
-1.2502566733019194e-06
-8.191600386453501e-06
-1.6011325101317198e-05
-1.7773092281458958e-05
-1.8627675672178157e-05
-1.3958876593278546e-05
-1.0240916594739247e-05
-1.0148716000912827e-05
-1.0319383704882057e-05
-1.4283303698903183e-05
-1.4477774584520375e-05
-1.3951110418020107e-05
-1.1963286397076445e-05
-1.070409973635833e-05
-1.210837262988207e-05
-7.5620330335368635e-06
-5.249863193057536e-06
-1.7949965922525735e-06
2.6599037710184348e-06
2.7024976816392154e-06
5.160814680493786e-06
-6.920367923157755e-07
-9.773143801794504e-06
-1.4137893117549538e-05
-2.0156365280854516e-05
-1.4732032923348015e-05
-7.001189942457131e-06
-3.058269157918403e-07
3.517389473017829e-06
1.2039423609166988e-06
2.1437438135762932e-07
-2.64377547409822e-06
-1.6407590237577097e-06
-4.363972720966558e-07
-1.7549368749314453e-06
1.2333874792602728e-06
-1.4300767361419275e-06
-1.0815194855240406e-06
9.141558621195145e-10
-1.4035277899893117e-06
-8.019133019843139e-07
-5.950538934484939e-06
-6.562333510373719e-06
-6.522548915199877e-06
-7.253160561049299e-06
2.2126658905108343e-06
4.5495810354623245e-06
3.7295976653695107e-06
3.2206613695962005e-06
-2.458487074363802e-06
-3.920147491953685e-06
-7.0046943392299e-06
-5.900466476305155e-06
-5.2772913932130905e-06
-6.16430349964503e-06
-5.286163172968372e-06
-1.1921276723114715e-05
-1.2614979482350464e-05
-8.639770044283068e-06
-1.0044084774563089e-05
-5.645533747156151e-07
5.9068441942145e-06
9.447983870813914e-06
1.7897795146382123e-05
2.1293500822139322e-05
2.2927332452127303e-05
1.9636521869870194e-05
1.9470875827209966e-05
1.862502688254608e-05
1.4971131349739153e-05
1.6386402649004594e-05
7.323355703192647e-06
-1.0893927537836134e-06
-7.004107374086743e-06
-1.860491659044783e-05
-1.8697296582104173e-05
-1.7744007323017286e-05
-1.222752109697467e-05
-7.267721002790495e-06
-8.598074487053964e-06
-9.91061153854389e-06
-2.0687905475824664e-05
-2.9584161779894202e-05
-2.980196268254076e-05
-3.070601064791845e-05
-2.5104775886575226e-05
-1.947894463683042e-05
-1.4261254136727075e-05
-1.068993469743873e-05
-8.917327591007052e-06
-4.300090949982405e-06
1.2646523828152567e-08
8.854988891471294e-06
2.5794132056944363e-05
5.2397686886251904e-05
9.44484488627495e-05
0.00012990384436761815
0.0001422898887994961
0.00012534395466445858
7.567637408101291e-05
1.2318127232902043e-05
-4.80573081631519e-05
-8.748002892389195e-05
-9.985794804379111e-05
-9.748596357894712e-05
-8.1693419815565e-05
-5.769144024725392e-05
-3.9781836449037655e-05
-2.3412697828462115e-05
-8.875484240888909e-06
-2.5120225473074242e-06
-6.07691708864877e-06
-9.559460181662871e-06
-1.4424656342271192e-05
-1.8424053564558562e-05
-1.0360105079598725e-05
-4.365969402897463e-06
7.860625146349776e-07
3.7152493632675032e-06
-2.753018293333298e-06
-6.459748533416132e-06
-9.210748544319358e-06
-8.054468025875394e-06
-3.076145617342263e-06
-6.2376492451221566e-06
-6.81678739056224e-06
-1.1809110560534464e-05
-1.2631345953195705e-05
-4.178513904662395e-06
3.035612508028862e-06
8.775964033702621e-06
5.68196981021174e-06
4.952288463755394e-07
-3.826670877060678e-06
-8.45320380449266e-06
-3.881006932715536e-06
-8.424327688771882e-07
3.2080525897981715e-06
6.635643785557477e-06
8.647892400404089e-06
1.4558080465576495e-05
1.5525787603110075e-05
1.949103238985117e-05
2.407012482308346e-05
2.3925893970044854e-05
2.762123983757192e-05
2.8509756020866917e-05
2.67693070554742e-05
2.8500978373813268e-05
2.8373096370160056e-05
2.940844751719851e-05
2.8451519028749317e-05
3.064137922592636e-05
3.108352780145651e-05
2.8356472853374726e-05
3.102275525179721e-05
2.5674837388578453e-05
1.676426961694233e-05
1.2868938483734382e-05
3.5313494208821794e-06
1.4349633374877158e-06
3.032506810995983e-06
3.513240812935692e-06
1.7689500282358495e-06
-5.236025458543736e-06
-8.297542308355332e-06
-1.354951507437363e-05
-1.2824872896999295e-05
-9.648886816648883e-06
-1.550311264963966e-05
-1.4924680613148666e-05
-1.8263628248860186e-05
-2.0321339093243296e-05
-1.4912342976458604e-05
-1.3177283449294919e-05
-6.912392450431071e-06
-7.260084998961247e-06
-7.015162395873631e-06
-7.018599035291118e-06
-1.2594765621543047e-05
-1.1467235935924691e-05
-1.2917224466946209e-05
-1.3674939623342652e-05
-9.014049624056497e-06
-8.20821196612087e-06
-5.252439109426632e-06
-6.347398425532447e-06
-5.006472974855569e-06
-2.243768676635227e-06
-4.3460306642373325e-06
-1.3864431593901827e-06
-5.568518872678396e-06
-9.232308570972236e-06
-5.026514031669649e-06
-4.726633392238e-06
5.636696187139023e-06
1.0805880833686388e-05
7.320641998376232e-06
4.23976098318235e-06
-1.9794350691881846e-06
-1.8581847598397871e-06
-2.3826377173463698e-06
-6.819053623985383e-07
-2.0628351649065735e-07
-3.858128707179276e-06
-1.8714835050559486e-06
-3.2533097282794188e-06
-4.794824349119153e-06
-2.5158857397400425e-06
-7.458545155714091e-06
-9.177822676065261e-06
-1.0586870075712795e-05
-1.0716302654145693e-05
-8.14884037936281e-06
-5.236171773503884e-06
1.0694111551856622e-06
-1.2617852007679176e-06
-3.1537432505501783e-06
-4.530084311227256e-06
-7.908947395662835e-06
-2.5395141847184277e-06
3.0479210408884683e-06
8.686825708537071e-06
1.3055436056674807e-05
1.4358389989865827e-05
1.7779499216885597e-05
1.8719974946179718e-05
1.7174214463011594e-05
1.6773635252320673e-05
1.6279285887321748e-05
1.684929031853244e-05
1.4274637806011015e-05
1.1110047353213304e-05
6.234802185645094e-06
-5.09265578330087e-06
-8.300522722493042e-06
-1.358660824735125e-05
-1.5926894775475375e-05
-1.411772427672986e-05
-1.581866627020645e-05
-1.3175346680327493e-05
-1.720858449516527e-05
-2.2384228373084625e-05
-2.241264053282066e-05
-2.4493478690601478e-05
-2.040712706730119e-05
-2.0481152887441567e-05
-2.1506701955331664e-05
-2.101301720358606e-05
-2.3121561980588012e-05
-1.6495471186317445e-05
-1.2524797398327792e-05
-7.609274121023191e-06
2.786920163089235e-06
1.6484527122884174e-05
4.050387849474646e-05
6.787407846786664e-05
0.00010018384409704595
0.00012691815175003285
0.00012832400443585357
0.00011077136184667324
6.37157785376985e-05
1.1725967397069326e-07
-5.507459286491212e-05
-9.148969138550456e-05
-9.818519902182743e-05
-8.905053084617975e-05
-6.939522620541538e-05
-4.8194353325925476e-05
-3.768199007936346e-05
-2.333460872705473e-05
-1.271137762159924e-05
-9.22886090393149e-06
-3.992658776041935e-06
-8.219163873945945e-06
-8.792322773842898e-06
-1.113354301196523e-05
-1.0877449199142575e-05
-6.6862342009699205e-06
-6.748041641913005e-06
-2.90477453290805e-06
-6.120666739661829e-06
-1.196755192722776e-05
-1.080975630429748e-05
-9.961496857613383e-06
-3.1478854225497344e-06
2.53456619248027e-07
3.8458385915873805e-06
2.1994690087012714e-06
-2.6896548206423176e-06
-5.339857125363778e-07
-3.430140054661024e-06
-5.608392825706687e-06
-5.594193453362095e-06
-1.0738569699242362e-05
-8.667851943755522e-06
-4.689247361966409e-06
2.19137712065276e-06
1.2735097584481991e-05
1.420076853264618e-05
1.4531534816342173e-05
9.442541795579018e-06
6.161719852570968e-06
8.613874115326325e-06
1.1200125186405785e-05
1.7704596984913223e-05
1.906178624722088e-05
2.2210272504707973e-05
2.7259843818683294e-05
2.6433731250108394e-05
3.057940421058447e-05
2.9126470053597586e-05
2.9391283874247165e-05
3.334247651309852e-05
2.8640900495702226e-05
3.160801884405373e-05
3.236787733840174e-05
2.7319073069520527e-05
2.662667554886866e-05
2.317585369837616e-05
1.7364596374136454e-05
7.005280394878355e-06
-2.50257357947703e-06
-8.389537583752826e-06
-1.4959836903472024e-05
-9.144656814896734e-06
-6.424608500310569e-06
-5.700082624571223e-06
-5.027111797062389e-06
-1.0154381925531197e-05
-1.0718370276663336e-05
-1.5748648479529948e-05
-1.8115914713234815e-05
-1.3767186374025187e-05
-1.3380625659920042e-05
-5.301003511704039e-06
-1.3904236766393296e-06
-1.8834535921996576e-06
-4.678452569351066e-06
-1.2354232694633538e-05
-1.6959970935204183e-05
-2.3517977979281568e-05
-2.4020466184992983e-05
-1.6102965673781e-05
-1.0414020266580337e-05
-7.136009116948117e-07
2.9792458917654585e-06
2.2424694634537445e-07
-2.316789050382795e-06
-5.690452553608338e-06
-3.0256421723606763e-07
-1.6167483636309044e-06
-3.873768491757801e-06
-2.8052055540683796e-06
-4.395347673380456e-06
8.123511179292109e-07
3.298944648122415e-06
3.5242256899437052e-06
4.6348069417945226e-06
-1.143409576798149e-06
-1.9213473478885135e-06
-3.535383598318731e-06
-7.456192633981118e-06
-1.007929176921607e-05
-1.245400164862076e-05
-9.332747936241503e-06
-8.11705331216217e-06
-2.3660799115532427e-06
5.258385726847337e-06
4.591964284372807e-06
1.1330924962749123e-06
-4.21395372995903e-06
-7.680562362111232e-06
-7.967546252984903e-06
-5.564054504247906e-06
2.0586631990227033e-06
2.3194281766336644e-06
2.6459943001100328e-06
7.06918854120886e-07
-7.943643936414446e-06
-1.0127573204954388e-05
-1.2024186048620322e-05
-1.0169131542170362e-05
-1.7021739040501416e-06
7.127999879230629e-07
6.545493079102016e-06
9.792194987312541e-06
1.3995670883559796e-05
2.0895030615974974e-05
2.1887628804506676e-05
2.618825521949475e-05
2.7072864327237767e-05
2.0935063616889238e-05
1.3669166719409986e-05
4.1567095649952535e-06
-2.0968897160855704e-06
-7.954799116305367e-06
-1.2890435300505487e-05
-1.2819185371881758e-05
-1.4966851381359447e-05
-1.213300174640608e-05
-1.3318708170118043e-05
-1.6683354715496534e-05
-1.773025314832921e-05
-1.9632824319160136e-05
-1.333131956471334e-05
-9.765177310328e-06
-1.0339845289308869e-05
-1.2411349075591716e-05
-2.386300127454888e-05
-3.1839362350183364e-05
-4.15446102124406e-05
-4.425525150963949e-05
-3.672941829790943e-05
-3.1075768447408336e-05
-1.8966156403621426e-05
-8.644176205052645e-06
7.863816676945135e-06
3.6822545894210634e-05
7.19829295121599e-05
0.00011738533055449807
0.00015031594728043274
0.00015896330455689167
0.00014573623650449008
0.0001002410875798887
3.915699630852032e-05
-2.2203330672709853e-05
-6.839417972059891e-05
-8.90558404762487e-05
-9.061978232693946e-05
-7.226461764275882e-05
-5.6291903092642315e-05
-4.448666675216373e-05
-3.244362812893087e-05
-3.311306466002861e-05
-2.9280626904437668e-05
-2.7025472377317783e-05
-2.4881478225324827e-05
-1.5875707390478055e-05
-1.2078099075552018e-05
-2.140959509233653e-06
2.578351086413022e-06
1.2250595773366513e-06
2.939624891951098e-06
-3.523111331560358e-06
-7.880724410824769e-06
-9.577183391229482e-06
-1.0250686273138854e-05
-7.496293278563826e-06
-7.4950939961127006e-06
-3.5605767152446788e-06
-5.666367655976501e-06
-7.886832918302389e-06
-6.638974582529045e-06
-5.531416604753758e-06
-3.0151807095535332e-06
-2.3167935978563037e-06
-1.2172768037999049e-06
2.310862214471854e-06
5.0194528284919215e-06
1.1210429647690034e-05
9.495445169704908e-06
5.573134671976732e-06
3.5637541486721602e-06
3.67125494449283e-08
5.2065311137994286e-06
1.0229762779090379e-05
1.4535841842189257e-05
2.0147220084254513e-05
1.793114563497511e-05
1.912966342842992e-05
2.041425454990531e-05
2.354868763632112e-05
3.0558405001102074e-05
3.224838371806982e-05
3.282245836544462e-05
2.829021900652151e-05
2.6136847054658574e-05
2.584587889487011e-05
2.2606979541706096e-05
2.1604615426440432e-05
1.5332469160966866e-05
6.96002211952873e-06
7.069848265928158e-06
6.185935376379348e-06
8.257569788838737e-06
8.367793043362326e-06
3.5150673056705273e-06
-3.305637619632762e-06
-1.1463308396741922e-05
-1.2611018632924242e-05
-1.7991626236835145e-05
-2.023544698204205e-05
-1.505434943283035e-05
-1.5334334420913365e-05
-8.137349141179584e-06
-3.845338369501405e-06
-6.463535100920126e-06
-5.050882350587926e-06
-7.975831294970703e-06
-9.133273465522507e-06
-1.3862119772056758e-05
-1.868951358119375e-05
-1.686092195996025e-05
-1.4898146446284954e-05
-8.765938787291816e-06
-4.854232997786312e-06
-1.0401425925010699e-06
1.8318288539376226e-06
-2.8795419666494126e-06
-4.703339300249354e-07
-3.6579954212356824e-06
-9.04252726741106e-06
-7.782433499414765e-06
-9.359652153762e-06
-4.488282115744369e-06
-1.0924998150585452e-07
9.417914270670735e-07
1.1888778317370452e-06
-4.019579705527576e-06
-5.690315106221533e-06
-5.500322799889545e-06
-1.2349668168099015e-06
4.7658512585257995e-06
3.4796687486959854e-06
7.830153549548413e-06
4.564165692499955e-06
-1.8511661892262055e-07
7.576192047054064e-07
-3.7053148389532e-06
-6.020070827617019e-06
-1.0682190804800484e-05
-1.275203555906046e-05
-8.027978992686258e-06
-6.593022590095643e-06
-1.6600106391706504e-06
-2.409249418633408e-06
-6.013430947859888e-06
-7.490766165574314e-06
-1.0713672622841841e-05
-6.296053356891207e-06
-7.854446835153794e-06
-7.455487320839893e-06
-4.851000312555698e-07
-1.605991315045685e-06
5.643864483317884e-06
1.0388777468506305e-05
8.670547231304226e-06
1.2551840427477146e-05
1.0368840776209254e-05
1.1019541602763638e-05
1.1151915259688394e-05
1.1271160929027246e-05
1.2943817296218185e-05
1.2121020404265437e-05
1.463076216623449e-05
1.3667680264006776e-05
1.4302648423836217e-05
1.579163301812514e-05
1.0559046472735645e-05
5.345141289581079e-06
-4.196682425572362e-06
-1.104072475754947e-05
-1.6477462168040802e-05
-2.1932632307652966e-05
-2.014581866660592e-05
-2.2469135387837014e-05
-2.3317851059800887e-05
-2.2559779040420835e-05
-2.7648947479974595e-05
-2.8835796683779336e-05
-2.916268931585364e-05
-3.0338345254676824e-05
-3.113425657375046e-05
-3.362646941695857e-05
-2.8504214810709527e-05
-2.4163009925359802e-05
-1.8110242422153533e-05
-1.0674869827198563e-05
-4.933951117891411e-06
1.0762399369923514e-05
3.513188823944802e-05
7.245909830544406e-05
0.00011822658530036279
0.00015158441192397731
0.0001677231219900932
0.0001500621814329861
9.874287570710294e-05
3.2610418429612764e-05
-3.519938866247685e-05
-7.897560897163203e-05
-9.697058158053551e-05
-9.411406040271686e-05
-7.37677246434032e-05
-5.575923717060505e-05
-3.844695095267525e-05
-2.791092470033618e-05
-2.357013272558106e-05
-1.877498891644791e-05
-2.0373006691443152e-05
-1.852769139532029e-05
-2.0866717591161432e-05
-2.1511692693820805e-05
-1.3304128174240759e-05
-7.1975583750827354e-06
-5.992994829284726e-07
-6.027210019965423e-08
-1.8792165974446107e-06
-3.763952577173768e-06
-8.643677915642911e-06
-3.896424686899991e-06
-4.456170472622034e-06
-5.173774297873024e-06
-2.0807464125027764e-06
-7.112906359907356e-06
-7.426468528137775e-06
-7.152022135414882e-06
-7.05525349076197e-06
-3.7235582794892252e-06
-4.374775244286866e-06
-3.0612987984568463e-06
-1.3593544281320646e-06
-5.670485734299291e-07
2.96530231480574e-06
3.7954746403556783e-06
8.563299161323812e-06
7.922965778561775e-06
9.224482141689805e-06
1.3145099273970118e-05
1.0359196267017978e-05
1.5337187733166502e-05
1.8369442955190607e-05
1.8385374460194726e-05
2.5423163833693252e-05
2.769292837001558e-05
3.096835644100793e-05
3.0433952701969247e-05
2.73307555289648e-05
2.5733942834449408e-05
2.0837946863139223e-05
2.123253545960324e-05
1.9627299138846865e-05
1.759605845563783e-05
1.657960399370495e-05
1.2610112321453926e-05
1.58302271984212e-05
1.8676370245884755e-05
1.509800870280742e-05
1.2153431271144655e-05
2.8706001558020944e-06
-3.7067413813929306e-06
-6.1718263850707444e-06
-7.0939303213890526e-06
-6.154787115519866e-06
-1.0455256528985046e-05
-1.1923975534955389e-05
-1.46410785646367e-05
-1.6173747098946478e-05
-1.2424148280842928e-05
-1.4386596831172938e-05
-1.1913561024812225e-05
-9.76768467353395e-06
-1.2492439054767601e-05
-9.017820161716372e-06
-7.930594961180759e-06
-8.107130042844801e-06
-6.912386652402347e-06
-8.447363939012575e-06
-6.411916501747328e-06
-7.5195528097538045e-06
-4.658046009353711e-06
-4.3215584355493775e-06
-8.027817784750368e-06
-9.388956300426798e-06
-1.2052895499437e-05
-6.756562584087078e-06
-5.100369889987633e-06
-1.8509939536670572e-06
2.390843974353629e-06
-3.3123563980552717e-06
-5.201571525503823e-06
-7.645981440873584e-06
-8.10746837487386e-06
-3.257757384744764e-06
-8.414713192905765e-08
5.5521320518892026e-06
8.355547151950304e-06
5.01825934406952e-06
8.636186521471245e-07
-5.627424002341286e-06
-6.886449682497187e-06
-9.08571951185877e-06
-5.973095539957285e-06
7.773223842377774e-09
-4.220727305437322e-06
-6.949048838578165e-07
-8.867559699865524e-07
-6.382937044691062e-06
-4.1062490936383256e-06
-6.0649513216048945e-06
-2.563379439379787e-06
-1.7738182123139268e-06
-5.179299819246808e-06
-7.979304541549936e-06
-1.6124485910040676e-05
-1.5220302771012939e-05
-1.176959847271064e-05
-8.00165469172498e-06
2.2695883217238588e-07
2.1210457816778217e-06
6.936600357221323e-06
1.0866256502595206e-05
1.3068866792309564e-05
1.5158411656557291e-05
1.306629269492987e-05
1.5491550698243373e-05
1.8629454757501662e-05
2.038556965544558e-05
2.1978856011628523e-05
1.4706514207318833e-05
1.0344778729631798e-05
6.286102347985434e-06
-6.592193813048652e-07
-7.606878398291883e-07
-5.418141199697857e-06
-8.952246844273759e-06
-1.4246547038965218e-05
-1.8357368162469356e-05
-1.9317803662488586e-05
-1.8285772625858954e-05
-1.2533449535112595e-05
-1.1901023185600934e-05
-1.663037028265535e-05
-2.1619703943542845e-05
-3.0390179176720267e-05
-3.117608707725594e-05
-3.308301074866904e-05
-3.236084160107566e-05
-2.3019193577056285e-05
-2.0130856569267053e-05
-1.161645604952355e-05
-4.55433553270268e-06
-1.2064377870046883e-06
1.4277147556640557e-05
3.893490179507353e-05
7.657085200207803e-05
0.00011700207676312857
0.0001441579577203811
0.00014901252723120706
0.00012336457541550772
7.604335564792564e-05
1.2469713510654401e-05
-4.566982340747927e-05
-8.459372872948734e-05
-0.00010125737833277526
-9.248625747204642e-05
-7.588944640701811e-05
-5.8097615465158015e-05
-4.053075554111274e-05
-3.423663349622075e-05
-2.552000796640641e-05
-1.8621687900122197e-05
-1.5794709497640724e-05
-1.0125603466804023e-05
-8.504720312885183e-06
-5.89774231229967e-06
-3.899665784956596e-06
-1.7748282061802456e-06
1.4627582913817605e-06
1.3406154266704107e-06
1.0823076763699646e-06
-3.4842008744817576e-06
-9.226370821124874e-06
-9.395391316502355e-06
-1.2612199498107657e-05
-9.018139962790883e-06
-8.316381013173668e-06
-1.3019938137404097e-05
-1.5913648326204566e-05
-1.8578464278107276e-05
-1.588434895438695e-05
-1.143076599419146e-05
-5.336372396413935e-06
3.496835233818274e-06
7.349918064392114e-06
1.459191253161407e-05
1.9335866454639472e-05
2.0706977011286654e-05
1.911153458422632e-05
9.991640354201081e-06
9.062151093530701e-06
6.1359075971267885e-06
4.259468482814555e-06
1.0008762160396145e-05
1.0814405641212943e-05
1.4377852266989066e-05
2.1689075310860062e-05
2.4392785689997254e-05
2.8697672632915783e-05
3.199362993200339e-05
3.453110764439771e-05
3.2475586522195954e-05
2.889197514832631e-05
2.8943114784851787e-05
2.3181889901024988e-05
2.2926416249902104e-05
2.2793905941398407e-05
1.790291082670592e-05
1.8421368849885766e-05
1.643525797589973e-05
1.7325005615020928e-05
1.5970914660101698e-05
1.1855126331283827e-05
8.478749123241869e-06
-2.714737547648838e-06
-1.325443565747264e-05
-1.961120722171472e-05
-2.1723648615079583e-05
-1.8803289776769816e-05
-1.5897005937404174e-05
-1.2229965022925171e-05
-1.2855111094722815e-05
-1.679963031619991e-05
-1.6138036357915553e-05
-1.732391922359966e-05
-1.4152391145216825e-05
-1.1510638728395861e-05
-1.2103088238291093e-05
-1.1939939668081934e-05
-1.6651240457576932e-05
-1.2286894389035297e-05
-2.8460922294470947e-06
3.6383664792083437e-07
5.121551794218249e-06
-3.1627685075363843e-06
-9.85927249530505e-06
-1.2212993055982224e-05
-1.3363522157305852e-05
-8.102296419565391e-06
-7.0253524881991325e-06
-4.599247404257767e-06
-2.6096489591509453e-06
-2.0168203036519117e-06
9.965864364858135e-07
1.4984382232796634e-06
5.823640890412207e-06
9.991884326154832e-06
8.999347301141825e-06
6.806372311984887e-06
-4.54194037047273e-07
-2.511412958483561e-06
-5.614761789729528e-06
-6.1901455410406925e-06
-4.169239332441066e-06
-7.975795256243146e-06
-6.4050848322949605e-06
-7.458437835339282e-06
-1.17870897611283e-05
-7.131906272661581e-06
-7.552148531431158e-06
-4.137838686801842e-06
-2.8887723146908684e-07
-2.1642326828441583e-06
-2.6050543056044262e-08
-1.994838271457411e-06
-8.60814907355234e-07
-1.6282788237731438e-06
-4.336581469033263e-06
-1.3358662727114279e-06
9.91356046142755e-07
8.661733431836183e-06
1.3026586316300381e-05
1.3774561807622376e-05
1.7668320538177795e-05
1.6489225458826695e-05
2.0265327179913584e-05
1.925969070271094e-05
1.572468784161174e-05
1.5255089692800539e-05
5.312405505719653e-06
-2.1911654357609223e-06
-7.728700325060345e-06
-1.3893090113015205e-05
-1.0865616900446184e-05
-7.171365837166377e-06
-5.001091381018341e-06
-8.176733103937295e-06
-1.2571454021781392e-05
-1.1929757420148235e-05
-1.569646349253162e-05
-1.5330000337598904e-05
-1.3794310916637187e-05
-1.693123476798064e-05
-1.7423733538635133e-05
-1.9923076024497277e-05
-2.088524229293398e-05
-2.1077740711916704e-05
-1.9211552398701315e-05
-1.1366576359250757e-05
-6.863920816613245e-06
2.013988478211104e-06
1.5139435618038988e-05
3.299012792012945e-05
6.154551658710261e-05
9.052210964455298e-05
0.00011774708468692552
0.0001223327373054417
0.00010426913831906859
6.946570226773474e-05
1.232564852671203e-05
-4.0411915165350365e-05
-8.291610811284045e-05
-0.00010438885271923937
-0.00010171409292070166
-8.482968394218915e-05
-5.3829255421078415e-05
-2.9358143024182937e-05
-1.1673138033074792e-05
-1.5970689446476172e-06
-4.941190013596497e-06
-6.285978429332317e-06
-8.7929463461478e-06
-1.2622567396647355e-05
-9.207234370478545e-06
-9.046782338373305e-06
-3.6425279859031434e-06
2.6192396944679786e-06
2.8967111802558065e-06
3.1688376793681527e-06
-1.4965642094466602e-06
-3.877318818013009e-06
-2.5170552362396847e-06
-2.9861246275686426e-07
4.9607299388299e-06
5.009922688259394e-06
6.473847975030367e-06
5.525228402802895e-06
-7.22693812349462e-07
-3.0074725145823322e-06
-1.0163350339098542e-05
-1.3015563467888569e-05
-1.3159283753338968e-05
-1.1212242839064857e-05
-7.144491746657877e-06
-7.350881105594453e-06
-3.880534109157452e-06
-1.9232659269619035e-06
6.901473170728423e-09
5.5436520369767095e-06
8.076290555436572e-06
1.572061557908455e-05
1.832510884014482e-05
1.71145881040502e-05
2.0174640440018266e-05
2.0118027578064357e-05
2.4657730136823375e-05
3.088639368797885e-05
3.3970334470723174e-05
3.7483965570572764e-05
3.3183863365593425e-05
3.181782994943205e-05
3.124866429971007e-05
2.4402136546086695e-05
2.1121873373886046e-05
1.885908409349213e-05
1.657385371345299e-05
1.575321448399336e-05
1.4892926628817804e-05
1.5231544352900528e-05
1.300689461913862e-05
1.2568446095428953e-05
9.151617632596754e-06
-9.589290357325808e-07
-7.260830557243025e-06
-1.73073191263029e-05
-2.4326022753484722e-05
-3.229332526188955e-05
-3.448462211963488e-05
-2.6026810928669875e-05
-1.7315521063210326e-05
-1.347998818346241e-06
5.443429586193815e-06
6.830430265836185e-07
-1.87368493698159e-06
-8.801322110230103e-06
-1.4312558164419897e-05
-1.737123454859102e-05
-1.8516956629355263e-05
-1.0866633829209604e-05
-8.084555361165258e-06
-4.420206096256152e-06
-4.659666046791244e-06
-1.0183412314290763e-05
-1.1776812698371941e-05
-1.162048476999189e-05
-7.773499305585574e-06
-4.008514792985807e-06
-3.3789100370995584e-06
-1.9702621329997783e-06
-3.0159446851030225e-06
-1.8727806718743523e-06
-6.189697842273745e-06
-9.83803636245284e-06
-5.5680503692201455e-06
-2.7726432563213166e-06
6.8898556264684885e-06
1.2816693811146251e-05
8.31048794225353e-06
2.8818531063734554e-06
-4.692018706009549e-06
-5.103454782329209e-06
-2.8746965199388796e-06
-8.302473588628345e-07
2.718283781177888e-06
-9.321388461103197e-07
-1.9546361045286176e-06
-6.216326937646954e-06
-1.1155286983921542e-05
-1.0428111181681743e-05
-9.939321785168431e-06
-6.096179276937619e-06
-3.034684254998865e-06
-5.426874849945307e-06
-5.3503422350331675e-06
-8.932417131291004e-06
-6.590794896510488e-06
-3.5887519516109023e-06
-2.516553308851144e-06
5.0095895858248696e-06
8.586591775383567e-06
1.4749474416930752e-05
1.7062853089555574e-05
1.2993950690542988e-05
1.3332544654076628e-05
9.344646855424799e-06
9.780624282029748e-06
1.2352973271845258e-05
9.353077189189207e-06
1.0667057381397171e-05
7.299469189092633e-06
3.3004631632138626e-06
-2.3186134967545513e-06
-8.743822036194615e-06
-1.1687725759657042e-05
-1.3789512991024822e-05
-1.0351259106755606e-05
-5.362135311770544e-06
-4.298287763049302e-06
-7.489048016395827e-06
-1.6918438632274047e-05
-2.4236563035628933e-05
-3.3503057011330384e-05
-3.67823496389974e-05
-3.170686079556617e-05
-3.24734866126164e-05
-2.7925197969125293e-05
-2.0596018202923005e-05
-1.5755647154946928e-05
-6.505677674795152e-06
1.338013930762827e-06
1.4505292483590893e-05
3.468811212314904e-05
6.228331449165125e-05
0.00010124182961135375
0.00013459687227168615
0.00014670910957192973
0.0001293301918394718
8.700163732555666e-05
2.582631088898779e-05
-3.5527958402781223e-05
-7.383031982044486e-05
-9.583292637671548e-05
-0.00010180734739151376
-8.457591309252166e-05
-6.379757780905493e-05
-4.315299463542033e-05
-2.7160811100657156e-05
-1.8542913494457025e-05
-1.3677352171725943e-05
-1.3290651850184076e-05
-1.0163282468056423e-05
-1.1068231742683565e-05
-1.1190010923201044e-05
-5.003238356948714e-06
-3.075312065448088e-06
-1.3679679113920429e-06
-2.7550339609661023e-06
-7.782044917803432e-06
-7.932657922538056e-06
-8.451736221104511e-06
-7.705808116043045e-06
-8.107137659862929e-06
-9.981115567825327e-06
-1.0108344554282667e-05
-1.2143855997237551e-05
-1.0686042969609844e-05
-7.8142437587303e-06
-6.569152333213424e-06
-7.151039653763291e-07
-2.1148580344743095e-06
-9.925209951688885e-07
4.0496070141671225e-07
2.8816868962167064e-06
1.4944869917599135e-05
1.5755977756271022e-05
1.2988915273126622e-05
6.91669868047029e-06
-3.353519559823326e-07
6.665848673037544e-06
1.2196026659694326e-05
1.794895422335685e-05
1.9816469148281612e-05
1.7935349774234055e-05
2.0485368509071122e-05
2.165909722862125e-05
2.7318851607560646e-05
2.8770409699063748e-05
2.9998871013958706e-05
3.1821390052755305e-05
2.8765884167114564e-05
2.813435457937885e-05
2.977792689762282e-05
2.8897300467178866e-05
3.0293696795524738e-05
2.5598043293939554e-05
2.1377040866354946e-05
1.695140815627383e-05
9.96317157841986e-06
5.896655466131051e-06
-6.06974822403572e-07
-5.591926651504764e-06
-1.098685629585816e-05
-1.251258390766452e-05
-1.1372390417818679e-05
-1.4368183997248707e-05
-1.304497732235177e-05
-1.304350632835849e-05
-1.578728495132964e-05
-1.136394860168366e-05
-1.3385507600105484e-05
-1.382338530220295e-05
-1.1066234378631634e-05
-9.605577247384645e-06
-7.151835234253667e-06
-8.295535167235357e-06
-7.249353870975028e-06
-6.859324344077322e-06
-6.202446570569009e-06
-3.2592557772659347e-06
-6.039367235644022e-06
-7.851225859667466e-06
-1.3087079423712566e-05
-1.5625035302946344e-05
-1.0065851483886945e-05
-7.873165486671496e-06
-4.058423314745596e-06
-2.827545813488541e-06
-5.868299012945499e-06
-5.7710082046469324e-06
-4.654490680877643e-06
7.475252914446173e-07
3.4253654348503915e-06
3.1507420317211654e-07
5.374508873501327e-07
-2.4565674721088726e-06
-3.0958335628383793e-06
-2.6761639446704066e-06
-1.1701713447109796e-06
1.9714251493496704e-06
2.3317804789257934e-06
5.515380394172098e-06
7.363831741713511e-06
3.9131839457695605e-06
3.2017444482335122e-06
3.440090949879959e-07
-1.5488544704567175e-06
-3.1067580721355625e-06
-7.421729264933674e-06
-1.1596648164413637e-05
-1.829350844673172e-05
-1.605509510227421e-05
-1.293172726946068e-05
-9.992187642637873e-06
-6.321039336398826e-07
2.2605161120736739e-07
-6.9441421146621e-07
-4.1416296880925074e-07
-9.301171644438e-06
-9.531470595902647e-06
-6.041579126758734e-06
-1.5669384083594196e-06
7.166479576881102e-06
1.3837351161782863e-05
1.8356536088504072e-05
1.9622661170615174e-05
2.142740470389981e-05
2.185465643833595e-05
1.6274200561383623e-05
1.62633768923115e-05
1.7969206737689092e-05
1.7058649291357142e-05
1.1290730299151619e-05
1.91767901469575e-06
-3.437257646510261e-06
-9.081217854145507e-06
-1.0291482794855256e-05
-1.2377596704027383e-05
-1.9204869886380038e-05
-1.9431097257438523e-05
-1.968700883026031e-05
-1.888950635020592e-05
-1.833244289173308e-05
-2.523897046557977e-05
-3.0023881322449597e-05
-3.4314307299609936e-05
-3.428395268656459e-05
-3.3159766644530464e-05
-2.958851155199227e-05
-2.558531707563816e-05
-2.3864771492299042e-05
-1.6448971337013063e-05
-1.0784202117974928e-05
-7.440162676175532e-06
4.722530661638302e-06
2.079246189623518e-05
4.7407595957338344e-05
8.870463750554336e-05
0.00013094173243644036
0.00015645404084807524
0.00015309869661450648
0.00012307736847105843
6.607440195693925e-05
2.6513637294556247e-06
-4.704023808699276e-05
-8.321604036609642e-05
-9.433158629690297e-05
-8.480502390284528e-05
-6.743480560089665e-05
-4.021135623588634e-05
-2.349704720927548e-05
-1.5980490388756152e-05
-1.2321292047090537e-05
-1.3886452620681666e-05
-1.4488039596471936e-05
-1.4788641806262603e-05
-1.4895078720655874e-05
-1.301982467794005e-05
-1.2720065797111602e-05
-1.1724504361154686e-05
-1.3143378623681201e-05
-1.5282324284271454e-05
-1.6353711771444068e-05
-1.4063306821299193e-05
-3.5956926467406447e-06
4.989998956261843e-06
1.181282664219907e-05
9.916447311297816e-06
2.261228246425162e-06
-2.558628807491914e-06
-9.117444960793364e-06
-7.75746730141691e-06
-4.589782975017442e-06
-6.74481748319522e-06
-7.368498131654633e-06
-1.0745085546659539e-05
-1.0661749229257111e-05
-3.1886870601738337e-06
4.783299118571449e-06
1.3823523886458133e-05
1.4807948900852352e-05
1.1649053703877144e-05
1.100850954571797e-05
6.238399578251119e-06
8.391282108277665e-06
1.1783690410993586e-05
1.5897747744020307e-05
2.1973461798552307e-05
2.6460887852408632e-05
3.178065639986016e-05
2.9994614578754408e-05
2.942578316833533e-05
2.939214436992188e-05
2.5137853185697168e-05
2.2085512796365947e-05
1.75394666257489e-05
1.3621257380691532e-05
1.0837402214747272e-05
8.526404712938529e-06
1.3206238008933724e-05
1.1414385085117829e-05
9.248614674106648e-06
9.493449056208192e-06
4.305266770643357e-06
1.279190200875746e-06
-3.5851990105584264e-06
-7.843057915124518e-06
-9.229484817296907e-06
-1.1874187407556747e-05
-1.0894939009631344e-05
-1.0858503060262592e-05
-8.338417046616087e-06
-9.28323527205066e-06
-1.2925840565003455e-05
-1.2616188996616984e-05
-1.3377547020354541e-05
-1.0949265060844482e-05
-8.572973229092895e-06
-8.382215810343041e-06
-1.045047565639834e-05
-1.1817182098639023e-05
-9.088410820368154e-06
-7.683854050810623e-06
-6.867260935905506e-06
-6.402344411071681e-06
-8.270251555586583e-06
-6.880595037728199e-06
-5.313560222930391e-06
-3.661375785668497e-06
-1.690963244982413e-07
1.2267768170204363e-06
3.582941189961275e-06
1.9340876633577864e-06
-3.1007618872536113e-06
-5.2760576636501355e-06
-6.57362988931709e-06
-2.6442298803885933e-06
1.4749521142221056e-06
1.2920356766699115e-06
3.88428202313662e-06
7.876037670939695e-07
-2.8265634455237887e-06
-5.9568507140284055e-06
-1.0502008876756008e-05
-8.279149824375054e-06
-5.831682869938959e-06
-5.170895747141913e-07
3.014569529113942e-06
-1.6550181953789433e-06
4.4623834583035205e-07
-5.533735247809091e-07
-1.1058389191020979e-06
1.3479602785082534e-06
-4.4484841055236757e-07
-1.242951725544117e-06
-4.225941893309937e-06
-5.901643021388736e-06
-6.1232383359310916e-06
-8.485766556987073e-06
-8.745831337364507e-06
-9.160569106825278e-06
-8.215464731620159e-06
-6.286462166826823e-06
-8.101961384454626e-06
-6.975641554163303e-06
-4.908183768748131e-06
7.478053021259257e-07
7.691942528254003e-06
1.354226890271093e-05
1.7693924064587918e-05
1.6697968476364622e-05
1.9387712200114038e-05
2.3009795881989703e-05
2.0160430949545116e-05
1.991832164094376e-05
1.509234027707862e-05
1.0465097602718743e-05
1.1146604606437904e-05
7.601526704092976e-06
3.1044736488183844e-06
-6.626508252338681e-06
-1.6350041505575064e-05
-2.0522056729532778e-05
-2.1321398548934667e-05
-1.9370850964151032e-05
-2.0727178025481408e-05
-1.7921380731422687e-05
-1.8975381635755184e-05
-2.3334986053669127e-05
-1.84775273055493e-05
-2.3000754254098865e-05
-2.601507310373563e-05
-2.649913926688896e-05
-3.304969470718788e-05
-3.0295467468022252e-05
-2.439345655602665e-05
-1.6861203789630963e-05
-1.0929136010418006e-05
-1.1295158742541389e-05
-3.3092516105170944e-06
1.1245365158174536e-05
3.975213587636972e-05
8.236469864186802e-05
0.0001237698711520352
0.00015131392319744918
0.0001542692236853327
0.00013098127737976029
7.909064845534886e-05
1.5166677030720166e-05
-3.7552708022303705e-05
-7.794451039444539e-05
-9.24965991089266e-05
-8.571803493850894e-05
-7.3296162099723e-05
-5.217911848376389e-05
-3.645626486559195e-05
-2.2697148779116105e-05
-1.5571026665384124e-05
-1.7999889450948103e-05
-1.624260073640471e-05
-1.8270881355419988e-05
-1.7026788100338308e-05
-1.2592141388267919e-05
-1.3587955663751927e-05
-1.0364366858084395e-05
-9.30435760437831e-06
-7.535988970630569e-06
-7.113716947060311e-06
-7.871146635807236e-06
-6.6686199033938465e-06
-7.680628641537623e-06
-3.4604703387230984e-06
-7.452644013028475e-07
-6.985355753386102e-06
-6.200097004693816e-06
-6.545653832290554e-06
-7.459337894033524e-06
-2.7651054779198603e-06
-2.2435982600654825e-06
-1.932131226567435e-06
-4.266704536348698e-06
-3.36270159095875e-06
-1.7705089021546883e-06
-2.177518240387144e-06
5.139072868587391e-06
1.0644426538419793e-05
1.3909104495724023e-05
1.8870991425501416e-05
1.656747429024108e-05
1.686867710759543e-05
1.5581493812533154e-05
1.4336907383949438e-05
1.605571333129774e-05
1.7627267425268656e-05
2.4719264956729603e-05
2.766261536635284e-05
2.9914131800978794e-05
3.0525108059009654e-05
2.5609213935240405e-05
2.5406553277207422e-05
2.228449488939077e-05
1.8866764094127575e-05
1.7774436742001853e-05
1.449391982077941e-05
1.681145704424125e-05
1.7618634160498914e-05
1.9298177903692704e-05
1.5613361483701738e-05
6.668859441560926e-06
2.7764660899265436e-06
-4.0823404106049566e-06
-6.0057012660763576e-06
-7.174774509621784e-06
-1.6317902122864325e-05
-1.9140730728395283e-05
-2.2581542566513235e-05
-1.980730598916125e-05
-1.260899341559707e-05
-8.472512035950786e-06
-6.682757089038205e-06
-1.1454081231931923e-05
-1.1266162005085789e-05
-9.430577961211384e-06
-1.096107655484957e-05
-5.8525129134068266e-06
-4.239771669745096e-06
-4.058321110278484e-06
-6.834637815700262e-07
-3.332047981530195e-06
-5.511954213943682e-06
-9.453758707422821e-06
-9.408807045474532e-06
-8.481877557642292e-06
-1.0490619160918868e-05
-4.196089321339969e-06
-9.509877827440505e-07
1.5096213701326633e-07
6.436625312744582e-06
3.6248030710339663e-06
2.0817440145037835e-06
-8.166089173755608e-07
-4.505282618083584e-06
-5.596299843091401e-06
-9.027164878716576e-06
-7.55459541323944e-06
-5.773499765382439e-06
-2.875593622775341e-06
-1.8535558865551138e-07
-1.0385981568106217e-06
2.3873047894085175e-06
2.0451635691642878e-06
8.576171239838004e-08
3.1187869353743736e-07
-4.73181330562511e-06
-3.2485428391737514e-06
-4.054353439642e-07
2.7875414616573835e-06
4.323957000451628e-06
1.9545715304047917e-06
1.4496071116809617e-06
-5.10053268953925e-07
-1.9840233562717913e-06
-4.619816763806739e-06
-9.481150527790305e-06
-8.921105290937703e-06
-1.3533054129766242e-05
-1.2747309028782183e-05
-9.615773592486221e-06
-1.0969957997986057e-05
-8.017938171178685e-06
-1.0638052685862931e-05
-1.1265210105193546e-05
-4.497476652431942e-06
-7.868079592299182e-07
6.1721362953903736e-06
7.926689022497158e-06
4.891789672001323e-06
5.402714464253222e-06
5.608534365819651e-06
1.1208959563191456e-05
1.4914942767063621e-05
1.7846082300820854e-05
1.8942500673801987e-05
1.6634271560178604e-05
1.5901312963251257e-05
1.3526192105928203e-05
1.2396275110404531e-05
1.1578699513847823e-05
7.0422680664705695e-06
5.64808556191565e-06
-1.2388522918627132e-06
-6.957895834602823e-06
-9.05818478713627e-06
-1.4968873756515677e-05
-1.6639562090858817e-05
-1.7634345908845717e-05
-1.8480288417777047e-05
-1.6661193853906298e-05
-1.5771908920214628e-05
-1.6560755398131732e-05
-2.099895243645733e-05
-2.0505411498561443e-05
-1.790193232409365e-05
-2.399377035544603e-05
-2.823850172717357e-05
-3.236233533243649e-05
-3.52808395973625e-05
-3.010829357208422e-05
-1.6860440723576176e-05
1.7639133602642687e-06
2.316298935056693e-05
5.007169659165811e-05
8.447769459962728e-05
0.00011644148105460772
0.00014260865418691537
0.00014321417313567508
0.00011614531501891179
6.663954138730332e-05
2.830908442774671e-06
-4.555066300326871e-05
-7.970038859639317e-05
-9.371722183004749e-05
-8.901865396637731e-05
-7.70518155377431e-05
-5.69035198623169e-05
-4.2341663515799155e-05
-3.29489346313494e-05
-2.4932142650868627e-05
-2.073979567285278e-05
-1.2168775697318779e-05
-7.0258400910461205e-06
-3.051240469176264e-06
-2.8155992595202406e-06
-6.095680873841047e-06
-3.892666995852778e-06
-4.950673428538721e-06
-7.805334121258056e-06
-7.150839564928901e-06
-8.616770401204121e-06
-4.933133709528192e-06
-5.8623892300602165e-06
-6.8126572614346514e-06
-7.553112823188712e-06
-1.0073796829601633e-05
-6.148664738248044e-06
-3.1603982506567263e-06
-1.7507890106571722e-06
7.966878001752775e-07
-4.655578322854126e-07
-1.259936652786564e-06
-6.072199767004349e-06
-9.643562293604191e-06
-8.314510978379985e-06
-8.982768463283719e-06
-3.1910703910398297e-06
3.6881816640743637e-06
1.185048517982068e-05
2.2866259996590088e-05
2.629175162383035e-05
2.663144039161125e-05
2.1402560264505155e-05
1.579973240950494e-05
1.5429128211508214e-05
1.5200374036794528e-05
2.081909906337387e-05
2.5572434992682247e-05
3.059118273540662e-05
3.6124112398283614e-05
3.675024004223815e-05
3.8476649024232756e-05
3.326304170059302e-05
3.0003971232872573e-05
2.764770772500924e-05
1.803441750780621e-05
1.4032842841515958e-05
1.0693368039937923e-05
3.5165762710676063e-06
2.6569733790893224e-06
3.132345455014729e-06
5.701279974346107e-06
3.593327164708171e-06
1.6312557136188843e-06
-2.563104658293014e-06
-1.2040881870234443e-05
-1.5139148786147416e-05
-1.6724602005524503e-05
-1.8816345004779578e-05
-1.8142495264328318e-05
-1.783555194379005e-05
-1.4547454497915169e-05
-1.255776862763014e-05
-8.516732123098336e-06
-5.131248030920688e-06
-5.604815896731452e-06
-7.48052980270586e-06
-1.4591598642255121e-05
-1.718890962365549e-05
-1.3177362347960297e-05
-8.433077255176613e-06
1.1428327297835494e-06
3.7626681432811893e-06
-1.0582518825685838e-06
-1.2565650422402541e-06
-6.746600888618559e-06
-7.1210587293535355e-06
-4.435846335582028e-06
-6.828099913036567e-06
-8.824193400869262e-06
-8.414148965130153e-06
1.0213444738838007e-06
7.692470376241545e-06
7.021223268566246e-06
3.876883397424535e-06
-7.00219993632345e-06
-1.2834984545406769e-05
-1.0843764130186173e-05
-7.020389602985233e-06
-3.289737605882692e-06
-2.0603448547262815e-06
8.383807426071144e-07
3.727910439010884e-06
5.6871936067182105e-06
6.260498025767447e-06
2.884299419747549e-06
1.7467828001827002e-06
-8.605998118582647e-07
-2.671542574717023e-06
1.3553644748753868e-06
5.302808858687058e-09
-4.444193564268062e-07
-2.160536610062991e-06
-5.966276376057067e-06
-8.224115163102397e-06
-1.2508507666098012e-05
-1.1189344718331995e-05
-7.777727773827792e-06
-7.540211413470388e-06
-5.74790453811147e-06
-8.525212479071342e-06
-1.026555355565506e-05
-9.952509003596788e-06
-6.330107339636015e-06
9.623711321182782e-07
6.0705755231538205e-06
1.2405331403897435e-05
1.4750022273801733e-05
1.58893252546477e-05
1.5431866131621064e-05
1.544315330193058e-05
1.991215162888693e-05
1.8530540728534106e-05
1.8694405753194587e-05
1.6605575297035102e-05
5.7001768709596945e-06
1.1640623824860086e-06
-1.2870341379311867e-06
-2.3729187432763865e-06
-3.989194397036044e-06
-8.661996275804995e-06
-1.0415421911602607e-05
-1.4471173926722258e-05
-1.464903482428781e-05
-9.349796187052561e-06
-9.619094498702907e-06
-8.399972671213618e-06
-1.0397338314760418e-05
-1.640257085000485e-05
-2.0263073679416266e-05
-2.3909745550554362e-05
-2.6243728143526823e-05
-2.955091679268662e-05
-2.8836680371568946e-05
-2.5805610107454413e-05
-2.151763783331262e-05
-1.1626493346739153e-05
-2.102862936226302e-06
8.649170013086405e-06
3.1905423725220317e-05
5.8172190051664074e-05
9.286397846608452e-05
0.0001265591785113429
0.00013718386003347405
0.00012359989568722085
8.308823441893765e-05
2.0916560970363207e-05
-3.639343572103826e-05
-7.690215306865866e-05
-9.494391701991844e-05
-9.349346612452791e-05
-7.806442306446115e-05
-6.19523644900255e-05
-4.6410186541834264e-05
-3.3759378538888996e-05
-2.570554681824433e-05
-1.4427014434659213e-05
-1.0555504104559077e-05
-6.725682510477782e-06
-2.5288866254413733e-06
-3.6369955296322587e-06
-2.0870571688647033e-06
-4.573445266942144e-06
-5.4021903679313255e-06
-3.1362047820948646e-06
-7.090277449606219e-06
-3.339794147905195e-06
-5.636369564854249e-06
-8.92993091383687e-06
-1.110778168822435e-05
-1.4511188396681973e-05
-1.0084690302392119e-05
-5.2184052492521005e-06
-9.675590035840287e-07
3.0411600846491638e-06
-1.6576530015299795e-06
-5.508183107849618e-06
-4.687254431701149e-06
-2.19125286093913e-06
4.071192392984813e-06
5.9528971405597986e-06
5.264227979751013e-06
4.634880724552204e-06
9.134223205364833e-06
1.2671464332925098e-05
9.770597898750566e-06
1.1012518143616035e-05
7.716232403254253e-06
6.849343435533228e-06
1.670987023771886e-05
2.1428292711789254e-05
2.5021256533364067e-05
2.599212359655212e-05
2.7737290338336607e-05
2.866752231511782e-05
2.5865736006380757e-05
2.9575432108686073e-05
3.1381427788801375e-05
3.005467920047522e-05
3.2937038895397563e-05
3.057565390918171e-05
2.8473485372160212e-05
2.3608469177816005e-05
1.7382317651026824e-05
1.325188588907622e-05
6.8324135327202384e-06
7.8832986218913e-06
5.492063905876421e-06
1.0718943030951777e-06
9.65363824434462e-08
-4.467400344765338e-06
-6.464638886427565e-06
-1.0260959584229568e-05
-1.6441582488369022e-05
-1.7397040892319637e-05
-2.2409070197682013e-05
-1.9734675561267068e-05
-1.5678770296290168e-05
-1.5599755784023728e-05
-1.5005642239884764e-05
-1.877538613825891e-05
-1.888560734641942e-05
-1.6559625237277942e-05
-1.3917210026193061e-05
-9.594674679647142e-06
-9.299665407525026e-06
-7.781133945172769e-06
-5.059497425463633e-06
-3.440444288571598e-06
-9.486859653407009e-07
-2.3986660835362272e-06
-2.624762487357657e-06
-3.625756335168262e-06
-2.7835045557367266e-06
-5.608484343611053e-07
-4.268330258128117e-07
1.6514683238710859e-06
-4.13796556131274e-07
-3.94013886761968e-06
-5.477369768414064e-06
-9.319098239757295e-06
-5.988061047901283e-06
-3.293043050689448e-06
-8.039872909648693e-07
1.479823140471126e-06
-1.0319935199731844e-06
1.0030914836534066e-06
4.071788339388149e-06
3.3660467124718707e-06
4.191081188764656e-06
3.5461008565107477e-06
6.3154667486742255e-06
4.0092916151479585e-06
6.753745083187823e-07
-1.5889817177594523e-06
-1.0847746239051048e-05
-8.215897651098203e-06
-7.102608378772857e-06
-7.76555873471807e-06
-6.891626298966003e-06
-9.485788382335159e-06
-6.964980343582283e-06
-6.105010015744483e-06
-6.4298907318516285e-06
-5.585518238149234e-06
-1.1446609960330534e-05
-1.1267791364844015e-05
-7.905232905613957e-06
-3.947565232920169e-06
2.9442414870572975e-06
4.194496341369813e-06
6.956941547286988e-06
8.400522119700327e-06
1.0064524644803896e-05
1.6115236689984158e-05
1.6181961996153404e-05
1.5758445442770608e-05
1.205172486606898e-05
6.467940124821325e-06
6.574878625542624e-06
5.570307280322595e-06
7.259968469952582e-06
9.182651979244838e-06
9.61867772275582e-06
9.562150125930202e-06
7.4001502525788965e-06
3.824777195404749e-06
-3.859266257677518e-06
-1.0133573027815146e-05
-1.289297301809711e-05
-1.8487878492123855e-05
-1.9619007730398152e-05
-2.232238944088749e-05
-2.0483741309362813e-05
-1.880765614714619e-05
-2.1030286006862298e-05
-2.057216568118747e-05
-2.5992343239522597e-05
-3.277709106441762e-05
-3.013414129782177e-05
-2.7849900334331323e-05
-1.8791393131323275e-05
-1.1072462598349375e-05
-5.291236561788537e-06
6.5695212470018305e-06
2.2324248106997402e-05
5.346545663087454e-05
8.948413653797616e-05
0.00012496320402988204
0.00014326762834571127
0.0001320931497730271
0.00010114849817455251
4.364623532637779e-05
-1.840219033510948e-05
-6.523458637275326e-05
-9.775369665021572e-05
-9.94082107581562e-05
-8.401353841236414e-05
-6.450797980050993e-05
-4.213249417261977e-05
-2.904117820889951e-05
-2.110935770360811e-05
-1.7097494719564565e-05
-1.4114081864136097e-05
-1.2919741720907041e-05
-1.5414556287396408e-05
-1.0127901646228565e-05
-7.654183491467847e-06
-6.6904236746268e-06
-1.375218289467739e-06
-1.1960196388827171e-06
4.3636657665047096e-07
-1.5560835890937597e-06
-6.510600883302686e-06
-7.238791909003339e-06
-8.454041903860343e-06
-6.088746658861055e-06
-3.129670176349464e-07
6.639730827373569e-07
-3.087743607466109e-07
-2.772086531876994e-06
-3.520975496940082e-06
-3.424138412810862e-06
-2.2043229819246335e-06
-3.756241198971111e-06
-6.8531845727193286e-06
-4.354361408331897e-06
-2.6777124730870128e-06
1.677222826401703e-06
8.234272058871284e-06
5.741833774663974e-06
7.573748916911427e-06
1.1605560530369985e-05
1.4180942685015907e-05
1.850998853569763e-05
1.7947731407730316e-05
1.9815807263512397e-05
1.711112804514414e-05
1.837007198446372e-05
2.6100669060724613e-05
2.763040311037912e-05
3.167942054460582e-05
3.0027817956579383e-05
2.5547853738316917e-05
2.574277118583268e-05
2.139544812962413e-05
2.210676825598057e-05
2.20017562924113e-05
1.8935684693133226e-05
2.011920855693461e-05
1.542298400636355e-05
1.2345226878096582e-05
9.1846397936024e-06
3.0950066047807923e-06
7.472532388419495e-07
-2.686339826141193e-06
-4.174392643108149e-06
-6.160471002658596e-06
-1.0886220252359635e-05
-1.2733919334095845e-05
-1.7696304325909296e-05
-1.9777804709519842e-05
-1.845183544446627e-05
-1.5518318946305953e-05
-1.0338100537410355e-05
-8.6069675262479e-06
-7.636184022885573e-06
-9.425606663171493e-06
-1.2061574466315506e-05
-5.907166382712603e-06
-4.733469268103363e-06
-2.5093156637012726e-06
-4.596106350618356e-06
-1.0449737374074175e-05
-1.1465789384601521e-05
-1.3319148138180026e-05
-9.511109851700894e-06
-4.536760570772458e-06
-3.871357421303401e-06
-4.5337142182688694e-06
-8.016821084311232e-06
-6.9467472485484905e-06
-5.623267952614697e-06
-4.5221668187878095e-08
7.072602898006153e-06
3.1488707463722676e-06
2.585558718237735e-06
1.806208501875517e-06
1.222353375851526e-06
4.173883326075156e-06
3.961790412176924e-06
3.46931517469784e-06
6.175242788231117e-07
-8.22843617243052e-07
2.823010049723962e-06
-1.196626953969826e-06
-2.859567075574887e-06
-8.03078512490174e-06
-1.2022852047266497e-05
-7.388892981907702e-06
-7.236313194880495e-06
-6.316020062513417e-07
3.4589185133881983e-06
7.352756483669509e-07
2.500378514014301e-06
2.068963112833444e-06
2.5153641445285757e-06
-5.095445203551208e-07
-7.635193469468504e-06
-9.809176162889344e-06
-1.2147379152338544e-05
-8.13915414710209e-06
-4.318842570683046e-06
-4.342455440564663e-06
-6.979975637477764e-06
-9.332888680546603e-06
-6.528405265271431e-06
-7.168304136939696e-06
-7.744948788968031e-06
-4.453018163985689e-06
-5.236769197836111e-06
2.074082658509724e-06
8.903566367735039e-06
1.2291572375033866e-05
1.8093771586791263e-05
1.768593335782498e-05
1.9776413409999805e-05
2.0977820213374798e-05
1.8704835497374006e-05
1.788338272490364e-05
1.227061250119732e-05
8.585334057897853e-06
4.412728912939201e-06
3.912076635970152e-07
2.2609197003475856e-06
-4.480017082642007e-06
-9.653915981289174e-06
-1.3600024203697103e-05
-1.938916568633431e-05
-1.760486645707715e-05
-1.5139735069169546e-05
-1.4297078109848371e-05
-1.4501066857519618e-05
-1.5417197914757708e-05
-1.2528076126727683e-05
-1.808681054171757e-05
-2.346512940221146e-05
-2.8227795951352164e-05
-3.472123432857188e-05
-3.430527544878714e-05
-3.214033006315731e-05
-2.8106426611884672e-05
-2.389035535088624e-05
-1.81776124463795e-05
-5.361977400752949e-06
1.1186803703822079e-05
4.0550538301431516e-05
8.113166052226006e-05
0.00012314717594108515
0.0001590343553061757
0.00016591660346421122
0.00014319869524115347
8.869032546954259e-05
1.956159712790395e-05
-3.738912369044556e-05
-7.899158606505807e-05
-9.44142707339779e-05
-8.846841944887274e-05
-7.423121360261575e-05
-5.392718992425216e-05
-4.015524439182627e-05
-3.071683624966681e-05
-2.9364894885475223e-05
-2.621315331907681e-05
-1.939161563768721e-05
-1.8138686186830455e-05
-1.3859138903171697e-05
-1.3158709293747961e-05
-1.444361464564281e-05
-1.193330342630361e-05
-1.0241623840556713e-05
-5.252350433693209e-06
-4.465502001949062e-06
-5.536191451938066e-06
-3.8115177858344396e-06
-3.149519898215658e-06
8.884960607247194e-07
3.459705681052583e-06
4.585776196108782e-06
3.639561327872798e-06
-3.0366362580025452e-06
-6.845245820841228e-06
-8.375331162824295e-06
-8.186212198779685e-06
-5.109344442644215e-06
-6.648413659604557e-06
-4.101897502550855e-06
-9.169276609100052e-07
8.583210728829727e-07
6.380801323757623e-06
4.682262215283117e-06
4.813484792975942e-06
8.80433560723759e-06
1.277569515423238e-05
2.0352744513729704e-05
2.238726085579401e-05
2.134962915079086e-05
2.1542346416936198e-05
2.1991479002281267e-05
2.370521622196975e-05
2.4419937517450307e-05
2.8785318477275723e-05
2.8008517688249412e-05
2.4799321295176924e-05
2.5546658434905112e-05
1.995890863781824e-05
1.6779906786723586e-05
1.62731118962256e-05
1.0124337563865993e-05
8.368562816940539e-06
7.342765229623183e-06
8.274853371403879e-06
1.0122556886926759e-05
1.0930580060630746e-05
8.290325126836251e-06
-5.557865279115504e-07
-4.4342888259052415e-06
-6.990931524342159e-06
-9.379056791658513e-06
-7.0936861220616265e-06
-1.0006850516219856e-05
-1.1875567565766687e-05
-1.3289172102304292e-05
-1.4716585496898915e-05
-1.2282429565857456e-05
-1.4805377190896252e-05
-1.496803679401637e-05
-1.9586127677939658e-05
-2.233437351151224e-05
-1.5358448990809848e-05
-7.760166681691771e-06
4.275182391211274e-06
9.034491768034059e-06
6.894014290992345e-06
4.058590661770722e-06
-5.143035878063529e-06
-8.04119588337926e-06
-1.091520880436292e-05
-1.263128433492966e-05
-7.764250085529056e-06
-6.847074587312818e-06
-3.2777135174910654e-06
-4.314828970564122e-06
-6.1267567161849e-06
-2.551705051700992e-06
-3.240080104660592e-06
-6.262243914534338e-07
4.0357315356231993e-07
-7.955777618917637e-07
4.578751259032288e-06
4.75140427624865e-06
6.767427521481295e-06
7.493946327485901e-06
3.151271130263922e-06
-9.623456662666285e-07
-5.257351403997745e-06
-8.484010663778463e-06
-1.0531461043683521e-05
-8.258093998847471e-06
-1.8849382286134642e-06
-2.194210424022458e-06
1.8180674032919342e-07
5.703014949176577e-07
-1.4533886769640958e-06
5.899732968828175e-08
-2.5021739702424384e-06
-4.424630446919764e-06
-5.718564807466464e-06
-8.357534511560516e-06
-5.932512067374773e-06
-1.687643134573591e-06
2.4694547846593196e-06
1.1323811577312881e-06
-4.793687935489288e-06
-6.884531785544823e-06
-1.4143346788841882e-05
-1.1660107020361465e-05
-7.5322644761399715e-06
-8.781316978456744e-06
-4.192140522718546e-06
-1.1654697118501645e-06
5.586825864156708e-06
1.4900560813657648e-05
1.903946485981578e-05
2.2485082126877387e-05
1.9394346168155607e-05
1.8277349909112672e-05
1.988812482522917e-05
1.942163726198487e-05
2.0096533262403682e-05
1.5995514672795252e-05
1.2936620692016731e-05
7.253423518704949e-06
1.9998788047814742e-07
-7.3895408831958775e-06
-2.000140534619277e-05
-2.7433018431111122e-05
-2.7857039185619215e-05
-2.6120347570213198e-05
-1.9354043615749106e-05
-1.7517729247629177e-05
-1.650035937927896e-05
-1.757765505772113e-05
-2.1541347678066813e-05
-2.357721882617625e-05
-2.8999110440963705e-05
-3.099705566000921e-05
-3.2309948551301204e-05
-3.127721402051975e-05
-2.286722690314491e-05
-2.2807720938544662e-05
-1.9257281337559107e-05
-7.009650175859861e-06
1.3127918577993114e-05
4.516693763889634e-05
8.289912284453749e-05
0.00012664750636304234
0.00015758520487452188
0.00016389004292705067
0.00014482067911103513
9.00920588264853e-05
2.0074903773092956e-05
-4.1842851032924955e-05
-8.256034288933733e-05
-9.805725437672663e-05
-9.773830333870137e-05
-7.769386161271541e-05
-6.011376206060959e-05
-4.595077882640908e-05
-2.6484724003239535e-05
-1.826759853429394e-05
-1.3957187661617354e-05
-9.558592864777893e-06
-1.2189090398351254e-05
-1.153766208972229e-05
-1.2425536397131509e-05
-1.226407937338081e-05
-9.92574462088669e-06
-1.0305653518116742e-05
-9.063112543117313e-06
-9.592734045327234e-06
-7.54185543883068e-06
-5.548917897613137e-06
-3.060824042222521e-06
-1.1774689028243301e-06
-6.0656913092316245e-06
-1.003293152734841e-05
-1.2698286013801408e-05
-1.1779898500208219e-05
-4.497667646319314e-06
-2.619759698063717e-07
4.417887112140306e-06
3.566453983694373e-06
-2.3910264417281724e-06
-2.548487032072444e-06
-1.6311461195073207e-06
1.3756716725765727e-06
6.002543159411289e-06
7.767677288939012e-06
8.075560685938399e-06
6.611259323108243e-06
9.824540711633745e-06
1.2168787861810415e-05
1.6675275674060686e-05
2.249126578135474e-05
1.9944595123888575e-05
2.1165544239920564e-05
2.2263649270826136e-05
2.1181858414820454e-05
2.7233369451096223e-05
2.767277396742429e-05
2.693080307381024e-05
2.6944095566250326e-05
2.5145055133179994e-05
2.9679189083253732e-05
2.993331327161286e-05
2.9606318321384606e-05
2.4131824488904385e-05
1.3562756407736742e-05
7.154254490160383e-06
1.3286985449667554e-06
-1.084740688384045e-06
-1.0677974842110416e-06
-1.4528700376104098e-06
-2.5791480311454507e-06
-8.693541417414963e-06
-1.3888901776226703e-05
-1.964522323305573e-05
-2.614421669022704e-05
-2.2814635599388566e-05
-1.6326369859598344e-05
-8.73013925684063e-06
-3.763626295949507e-06
-4.17030196331325e-06
-7.501566528844705e-06
-1.3829958106725826e-05
-1.3259009733701532e-05
-1.0179683840760845e-05
-1.0261285069645965e-05
-5.156662837180193e-06
-7.1772188903196366e-06
-9.897016411741788e-06
-9.092640652852424e-06
-1.0206019624092733e-05
-6.8770516463700915e-06
-4.534127015176637e-06
-5.141020778864913e-06
-6.520264605569537e-06
-8.05778392987122e-06
-4.410796350384771e-06
-2.955995682896173e-06
-7.804122788002132e-07
1.8975904367835028e-06
-7.483192803192651e-07
-2.2888897319717216e-06
-7.0908831730776e-06
-1.027071402859292e-05
-9.520437288301764e-06
-7.628099979228864e-06
-2.8939933827132336e-06
-3.272314529567666e-06
-4.676742491938057e-06
-2.6466244662515237e-06
-4.478684559217072e-06
-1.76935816398327e-06
-2.426367018415476e-07
2.0530560504994355e-06
3.7502312579817954e-06
2.064794443867868e-06
1.3685842077393318e-06
-2.047988573394832e-06
-3.5057447576036793e-06
-6.238838977878913e-06
-1.149934382738138e-05
-1.1614048048613768e-05
-1.610117340078432e-05
-1.4725810274285323e-05
-9.557790349390416e-06
-7.963400094013195e-06
-4.139683369430713e-06
-5.318761395756155e-06
-4.909720814794127e-06
-5.125805728312116e-06
-6.498024731627083e-06
-4.743406293528096e-06
-5.614351380245353e-06
-5.9086347619086155e-06
-3.575525397536694e-06
-7.92793684922799e-07
4.237606731294363e-06
6.449401098507224e-06
1.342011807992094e-05
1.5697752246524033e-05
1.4219819490790542e-05
1.8296429288966465e-05
1.5544643702014582e-05
1.4053283621251467e-05
1.679839238022396e-05
1.5639460684724327e-05
1.588030670518492e-05
9.195325219479855e-06
2.199464688601438e-06
-5.839654477313161e-06
-1.6632845586173062e-05
-1.823227910335845e-05
-2.1693706116820977e-05
-2.3280600657926698e-05
-2.2386996647583146e-05
-2.2493274514090444e-05
-2.0994095507376187e-05
-2.2554324687007465e-05
-2.326915989669942e-05
-2.5458913569309516e-05
-3.1764622008267906e-05
-3.26098287359855e-05
-3.5532031461116276e-05
-3.323271027966257e-05
-2.6961145636050787e-05
-2.1448970983328763e-05
-1.3659668070431508e-05
-1.0238404456686112e-05
-1.7680231394479051e-06
1.6409800878136593e-05
4.211120676700375e-05
8.261750156179914e-05
0.00012300577122914547
0.00014769405015613302
0.00014661036266261362
0.00011570738524824264
5.912644678573997e-05
-5.934358341619372e-06
-5.878472643416899e-05
-9.181744405850623e-05
-0.00010237511878585792
-9.067183680144808e-05
-7.135734392704762e-05
-4.938388735808985e-05
-3.0764034590902156e-05
-2.3517494696534413e-05
-1.848282363425824e-05
-2.1872581442039518e-05
-2.2116182549325458e-05
-1.9392000126572384e-05
-1.8928947383756167e-05
-1.1714022662090429e-05
-6.592518730030861e-06
-2.3432107809640002e-07
3.1831000342208426e-06
3.01236013910966e-08
-2.8289337024034467e-06
-1.5121545857255114e-05
-1.7809429778026242e-05
-1.2174227322248043e-05
-8.833507536110119e-06
4.59253897133749e-08
-8.630938737042015e-07
-5.857780138285307e-06
-9.045137858265662e-06
-1.0743995403572626e-05
-7.551615794909594e-06
-5.43104965800012e-06
-3.847384391519881e-06
-2.798557261485257e-06
-2.733590349635051e-06
3.026521540050453e-06
5.520554509530484e-06
8.707417350706237e-06
1.0095929837916628e-05
9.760757166077383e-06
1.5391716033263947e-05
1.783149025413877e-05
1.8739727352112823e-05
1.6068692048065714e-05
1.3354372299545503e-05
1.73938801708573e-05
1.6746910773690615e-05
2.1155053786969802e-05
2.6079011604451807e-05
2.64055765910598e-05
3.2691988621991186e-05
3.3740594403752766e-05
3.3231833867830574e-05
3.095840611422318e-05
2.588137988368544e-05
2.379200782343105e-05
2.1008711087233678e-05
1.8822851870936574e-05
1.6462044527543185e-05
1.1006419640580134e-05
7.711058515269542e-06
-1.7249594748136587e-06
-5.2617859864767524e-06
-7.026143634902837e-06
-1.1062901194236474e-05
-7.972365438035922e-06
-7.4609901048461325e-06
-8.30169847176876e-06
-7.507088298552844e-06
-1.0625318395796057e-05
-1.1088800874858862e-05
-1.2579542385537934e-05
-1.4790875525250158e-05
-1.4776332022847782e-05
-1.5046275848362711e-05
-1.121583181884489e-05
-1.2004862583125941e-05
-1.0095098559759208e-05
-7.666302963116323e-06
-1.0863730381061032e-05
-9.104260016101762e-06
-8.219007554544078e-06
-7.29843645785877e-06
-6.3889297052810434e-06
-8.525643011125794e-06
-8.810495842226373e-06
-1.0423550293126027e-05
-6.9800690880583716e-06
-3.3052591561499867e-06
3.423626822041115e-07
4.252984581398778e-06
4.896723567071604e-06
6.062197940082115e-06
3.611611305132101e-06
-1.2287255231058225e-06
-9.748596312419977e-07
-7.561499160146923e-07
2.3055970359564526e-06
4.922340281154902e-06
3.1021727409097366e-06
4.511090196501755e-06
7.255684977280907e-07
-3.747516871044354e-06
-7.403380664072756e-06
-1.191551928059198e-05
-9.749026162353402e-06
-6.453847731791029e-06
-1.341020379186375e-06
2.2002383275321336e-06
-9.01710222933616e-07
-5.595727543550311e-07
-4.132747903895506e-06
-4.386056389193982e-06
-6.002143209116184e-07
1.5317178849727497e-06
4.967751124240749e-06
2.367575234529795e-06
-1.529148676127079e-06
-5.7913047157853725e-06
-9.846121656664764e-06
-4.6463258058793144e-06
-2.70666544111009e-06
-1.696488652669359e-06
1.7953773294721032e-06
3.754590807147906e-06
7.439331739078625e-06
9.693314495962113e-06
1.2765248357027303e-05
1.4399782912732917e-05
1.6368689671253378e-05
2.2089078015596897e-05
2.3197302880362258e-05
2.3633169575987267e-05
2.316213510766829e-05
1.7662149275565753e-05
1.2852204918090138e-05
7.290236681001261e-07
-7.469835509255063e-06
-1.2911260228065657e-05
-1.6172226764865627e-05
-7.79678839535336e-06
-5.337873290045536e-06
-8.080769134721777e-06
-1.1791764109148062e-05
-1.7721137510307017e-05
-1.833483304380934e-05
-2.0781628450095013e-05
-2.328102618776029e-05
-2.4495522097822686e-05
-2.873196024211211e-05
-2.4946091684796556e-05
-1.8817473687704478e-05
-1.3589983268502692e-05
-1.0830448673004867e-05
-6.499207415799901e-06
1.0199528333032504e-07
5.768226060354209e-06
2.5611749720155785e-05
5.584984091910883e-05
8.682492489242577e-05
0.00012702370383976813
0.00014338928906454385
0.0001317764101713692
9.581752010490163e-05
3.385979914583004e-05
-2.7401347438171797e-05
-7.533506641266285e-05
-0.00010005472609009303
-0.00010153248945243831
-8.846412094953848e-05
-6.714609207847388e-05
-4.851580058584659e-05
-3.133073005301412e-05
-1.9129943211737555e-05
-1.0380209346294578e-05
-5.442366955321631e-06
-6.146090413494676e-06
-4.407198957778746e-06
-4.4761075059795985e-06
-5.205342517911049e-06
-3.0988477419668925e-06
-7.018221140242531e-06
-9.228738576894102e-06
-5.309801622388477e-06
-3.3850288900794112e-06
3.902849925907503e-06
6.214688596628548e-06
5.969995072518941e-06
3.876939899782883e-06
-2.561059886829753e-06
-3.4636483405847684e-06
-4.319181016398943e-06
-5.750773652835051e-06
-3.654849820122763e-06
-2.6140439786104253e-06
-1.0468646678418736e-06
-1.5740095022920286e-06
-1.213845962411142e-06
-1.5316309145418927e-06
-2.2127339889266295e-06
1.8600054545458988e-06
2.7235676043346757e-06
7.726258900220273e-06
1.2414542993610667e-05
1.4210591984920029e-05
1.7350851294395397e-05
1.5689251654293912e-05
1.711859329134313e-05
2.2399823933483276e-05
2.404842871328583e-05
3.051767589568044e-05
3.456014110270189e-05
3.664986138574022e-05
3.853785483443062e-05
3.869108002163557e-05
3.6999641451984644e-05
3.099833463693358e-05
2.653258445661777e-05
2.4462183432660822e-05
2.2302151137409965e-05
2.673116705409484e-05
2.3815212216504733e-05
2.0603115217454615e-05
1.717265786282951e-05
9.774807040230371e-06
9.96360574845312e-06
6.557929054906708e-06
2.312320475539309e-06
-6.255280595723889e-07
-7.440217132170801e-06
-1.183739141197293e-05
-1.7851021993919858e-05
-1.7642229749981198e-05
-1.3112587453179003e-05
-1.416026827882888e-05
-1.4340481016006379e-05
-2.011407843838242e-05
-2.2921209392734454e-05
-2.011469030094304e-05
-1.4563057220584597e-05
-7.2674991997701e-06
-8.807729273030418e-06
-9.015261639433447e-06
-9.761384831108444e-06
-1.1851361477965838e-05
-6.522176136058988e-06
-6.905508712407027e-06
-6.428743859032693e-06
-3.108583769062534e-06
-4.498882617554045e-06
-9.133151479545631e-07
-1.6219574945353088e-06
-4.88568230139208e-06
-5.813483767269645e-06
-5.492953164321079e-06
4.226977807775256e-07
3.1947411116561852e-06
4.817047624783299e-06
4.046040999128309e-06
-5.420549769041827e-07
2.0557616835503723e-06
8.515168019584962e-07
5.731862984248437e-07
3.7368306493590353e-07
-4.0541282260164735e-06
-2.7812557163997553e-06
-2.167447973988601e-06
-3.354455088810937e-06
-3.6738102835442987e-06
-5.2014088396390434e-06
-2.0390931467773044e-06
3.105384394075372e-07
3.3428012784497696e-06
2.5405498718100716e-06
-2.9851167937522405e-06
-7.374432470896863e-06
-1.2075111953890882e-05
-9.856505357674905e-06
-5.071085183772084e-06
-1.7333824189336156e-06
1.94527012808976e-06
-3.81431505047658e-07
-3.7504946703847963e-06
-2.9135883323760936e-06
-1.8300875126442406e-06
5.264390551928955e-06
1.0027945336332778e-05
1.4828592952653707e-05
1.757190477746917e-05
1.680202444731549e-05
1.8399303598926053e-05
1.7236183907698432e-05
1.5567457353427017e-05
1.2275256949578761e-05
8.721626727492549e-06
7.178867235779762e-06
3.911556859748089e-06
3.385520244592044e-06
1.3467447388393339e-06
-4.3291955762470025e-06
-7.95443372680893e-06
-1.4867712820887391e-05
-1.9449266915216867e-05
-2.004037060032715e-05
-1.8377453329776472e-05
-1.4133076433608949e-05
-1.4069746157474583e-05
-1.5116364238565438e-05
-1.73310066884369e-05
-2.246504743652622e-05
-2.306002136265306e-05
-2.437232512875198e-05
-2.0818182633774995e-05
-1.831050224154751e-05
-1.671633253863547e-05
-1.3057845876573992e-05
-1.1792570717261697e-05
-1.416691816302773e-06
2.046787631115876e-05
5.235448873008863e-05
9.142524959315779e-05
