-5.911355174248456e-06
-4.486430611905234e-06
-1.0103971135322354e-06
4.474476327231969e-07
-5.497309985003085e-07
-2.9138354875613004e-06
-5.876553700545628e-06
-5.531429792426934e-06
-2.8842265464845696e-06
-2.674719326023478e-07
1.2995985798625043e-06
2.7165423261976684e-06
1.3316122249307227e-06
-2.581040803306678e-06
-5.606498007182381e-06
-5.98872634327563e-06
-4.353453050498501e-06
-1.2256067520866054e-06
2.708380520743958e-06
1.9635155013020267e-06
-4.639201733880327e-07
-2.444905248921714e-06
-3.3235061209779815e-06
-2.511552679607121e-06
-1.6614178548479686e-06
-8.694747748450027e-07
-8.957352974903188e-07
-1.2907814834761666e-06
-3.587967967177974e-07
7.663301175853121e-07
1.4680324511573417e-06
1.5745011978651746e-06
1.9218360876038787e-06
1.8091383253704407e-06
4.6016672285986715e-06
1.1454972423052823e-05
1.8474035300641845e-05
2.5130737412837334e-05
3.2006568972065e-05
3.51318152524982e-05
3.475516848538973e-05
3.450418955708301e-05
3.187412187344307e-05
2.772402319806133e-05
2.4560738779655367e-05
2.0119878399782465e-05
1.4081490235184901e-05
8.869937119015958e-06
2.2796081111664535e-06
-2.7007894232156104e-06
-5.405779461398197e-06
-6.591075930373336e-06
-6.748147484358924e-06
-4.932758315590036e-06
-3.307030965515878e-06
-2.9810823889420135e-06
-5.917922294429445e-06
-9.249177992387558e-06
-1.142226039974048e-05
-1.1900268304998463e-05
-6.290203373282566e-06
2.3681708398726187e-06
8.205041694964166e-06
1.5054074538056739e-05
2.2033772779650462e-05
2.8711808113257575e-05
4.420954041961522e-05
6.822948421358888e-05
0.00010014982069606049
0.00013965992116027337
0.00017118553921591229
0.0001758155098059433
0.00015414200709074066
0.00010494108062175656
4.1920660464711546e-05
-1.1478339160930773e-05
-4.660685124235897e-05
-6.035690705630259e-05
-5.699316864138382e-05
-4.43429819370067e-05
-2.639062358866795e-05
-1.358038900889369e-05
-5.837445200995717e-06
-2.678096279851161e-06
-5.557844588111038e-06
-5.4498794952451135e-06
-3.021701445504732e-06
-4.0848703974916134e-08
6.228121264939546e-06
6.908261184435105e-06
4.623641530088207e-06
1.984192522286321e-06
-9.512107226328226e-07
-4.60086994280573e-07
2.1669131911039585e-07
3.915127649634087e-06
7.990373660504702e-06
1.0161477575820754e-05
1.077276942851313e-05
1.0707441560953157e-05
8.786062267063244e-06
6.7153991949453484e-06
5.476465275933151e-06
8.228268256971205e-06
1.3309553651197348e-05
1.7393888583683292e-05
2.1766641111753415e-05
2.1261159645291627e-05
1.764643002388766e-05
2.02638085511353e-05
2.4688540520401148e-05
3.222806958547153e-05
4.279494919501303e-05
4.566107179471146e-05
4.5668933012166235e-05
4.697202052739158e-05
4.628922602023522e-05
4.940242604334344e-05
5.591262015514076e-05
5.901356769300037e-05
5.998664312301116e-05
5.8684357782112784e-05
5.714411247481621e-05
5.518305317764316e-05
5.337885534117959e-05
5.370864721498947e-05
5.277022683003452e-05
4.7411595687663066e-05
4.392101425310102e-05
4.144996125887701e-05
3.993652501321776e-05
3.969384169977275e-05
3.664337179998256e-05
2.8376574732646986e-05
1.9191919363947818e-05
1.1946314657507173e-05
7.417362439809949e-06
6.684864615635888e-06
5.745234716414416e-06
3.7626761013598298e-06
5.841761776537169e-07
-2.00722899990069e-06
-5.267870619718451e-06
-6.413016194528609e-06
-5.4231688864092575e-06
-6.915976541677082e-06
-8.227391617765534e-06
-7.462957455572905e-06
-8.362837320419203e-06
-9.271151952816581e-06
-6.8069084591115825e-06
-2.9103318865963956e-06
-4.926511110170395e-07
1.263972762899357e-06
-1.0923029094556114e-06
-5.018807883061527e-06
-5.844191150572442e-06
-4.141108888688905e-06
-8.148923598128022e-07
3.602273523028998e-06
3.442138336140488e-06
2.458729341014987e-06
1.4706980664414004e-06
-1.3791218407277483e-06
-4.4743363787347334e-06
-7.197762784016959e-06
-7.587269237774308e-06
-5.251217771728989e-06
-1.1506565442687133e-06
2.1651482029483304e-06
3.5854920952260727e-06
3.289668711659033e-06
4.935769766234444e-07
-2.951501073766849e-06
-3.28635712776304e-06
-3.065636292376439e-06
-1.591639602338546e-06
3.214399839635007e-07
9.771274562808685e-07
5.478808589032269e-07
7.192414841483696e-07
1.4580334664060501e-06
1.3012637509746128e-06
-2.1881972998016863e-06
-4.85526049942564e-06
-6.142667643871391e-06
-3.895134227605013e-06
-2.1283187834342243e-07
3.15164845687832e-06
4.700823183156899e-06
4.2497657659623655e-06
4.100298951925652e-06
4.084141096427629e-06
3.2529889040233684e-06
2.6334059839427937e-06
5.372460805119772e-06
9.512604265182745e-06
1.692574653588963e-05
2.570770982401882e-05
3.15393517666962e-05
3.369307694356394e-05
3.556967840268044e-05
3.521931137129286e-05
3.450160477314057e-05
3.410225917832577e-05
3.3222957881662296e-05
2.8999099981774634e-05
2.338953743219463e-05
1.7827220290200785e-05
1.1321059446345316e-05
5.720988497159851e-06
1.7498994111520005e-06
-1.9515238136591506e-06
-5.0336657295702025e-06
-5.442353085527429e-06
-3.687162688947865e-06
-2.065986109300866e-06
-6.837831278971862e-07
-1.761220346452319e-06
-4.95271831368882e-06
-7.1663796461507445e-06
-9.352923939331959e-06
-7.164963903960597e-06
-1.4205148772816756e-06
5.107578886054398e-06
1.5935660712784738e-05
2.807083592415438e-05
3.998620843503886e-05
5.982031211715366e-05
8.468548287510202e-05
0.00011536546514889778
0.00015294560080292285
0.0001814551995948932
0.00018412932263345283
0.00016309058435126644
0.0001141246385714112
4.997984478904982e-05
-3.85231987820589e-06
-4.124934343963105e-05
-5.699070220543945e-05
-5.460320380734629e-05
-4.2503738200139196e-05
-2.8202074531691324e-05
-1.659238137108332e-05
-9.231647482010885e-06
-2.322489081052481e-06
2.1537485963563086e-06
3.219869313397794e-06
4.078257916262373e-06
5.176905233383877e-06
3.417003654249129e-06
5.383514917411958e-06
6.556803100465913e-06
5.359257443160459e-06
4.7047349198692245e-06
3.232424205634743e-06
3.1646072784496937e-06
4.778417633133358e-06
7.409516797451943e-06
9.016539252115763e-06
7.167707053667982e-06
3.322051270515658e-06
3.424692977205268e-06
6.968304091969912e-06
9.92249226783315e-06
1.3882769394513161e-05
1.4016103818903503e-05
1.1414574373702635e-05
1.1817666063507204e-05
1.273675479751546e-05
1.4228506756808201e-05
1.5739764648969867e-05
1.856620963280875e-05
2.531918994463922e-05
3.404466826850694e-05
4.2619182295311475e-05
4.779473135840817e-05
4.938937058796e-05
4.8650060534782824e-05
4.5463054334504704e-05
4.747261925786006e-05
5.2444742209445394e-05
5.6458916674273496e-05
6.033401484728529e-05
6.155947835395637e-05
5.7544125638742116e-05
5.1922901775469654e-05
4.5804166575180716e-05
4.16155442053423e-05
4.196241593490413e-05
4.258363287590328e-05
4.17403740584632e-05
3.8690473047608975e-05
3.179122188612382e-05
2.3809383037587395e-05
1.7506170479464345e-05
1.2337250609562034e-05
9.901596172312566e-06
8.49229888899572e-06
8.064063536039612e-06
6.013243137203972e-06
2.2738008738087956e-06
-2.088735755023663e-06
-4.849675747209403e-06
-6.18850253886194e-06
-4.955987833454856e-06
-6.164722321955196e-06
-8.096197234408464e-06
-7.760833568681846e-06
-5.486904456120101e-06
-2.593478029666585e-06
-2.3017023522697855e-06
-4.62563730252441e-06
-5.961404212939669e-06
-5.918294732509821e-06
-4.31522425969888e-06
-7.425127250826336e-07
-1.2274372238607612e-06
-2.8593209435712197e-06
-2.2245618538363487e-06
-1.2566212035380886e-06
-1.2992608162676333e-06
3.5061020753346384e-08
-1.9132512534270063e-06
-3.70559075690835e-06
-4.105621997041453e-06
-4.935403921990655e-06
-3.7235291756587685e-06
7.10523636371363e-07
3.211660100532754e-06
4.7699816150270635e-06
4.592711547957151e-06
1.5122542436074582e-06
6.695031515846495e-07
7.594111366415746e-07
7.828673460608115e-07
7.800613275321666e-07
-9.664601066106115e-07
-1.032455998029036e-06
-1.2301778724577161e-06
-3.5405763583185035e-06
-3.2751104299677536e-06
-2.557342327236256e-06
-2.1131429548404412e-06
1.0909971024375409e-06
3.554975251063297e-06
2.80687561371451e-06
2.1240373371256283e-06
1.124789378081914e-06
-3.0528497063642135e-07
-1.4563175909643178e-06
2.2940594135434367e-07
3.572605123736139e-06
5.617352940134879e-06
9.3523231043946e-06
1.6966861608125328e-05
2.2614925683228648e-05
2.896090325066325e-05
3.423618932174577e-05
3.603107984417875e-05
3.569198895547743e-05
3.494489783406607e-05
3.356744821303437e-05
2.9546846917583025e-05
2.5047556277968397e-05
1.9155983522978204e-05
1.163948843441176e-05
5.1816333552778815e-06
9.86511054179573e-07
-8.902203489924432e-07
1.1287032748441561e-06
3.009105398632528e-06
1.9297807511975407e-06
-1.1622419151535723e-06
-4.51089931630122e-06
-6.6366665123496205e-06
-5.222831532591954e-06
-3.404373615012446e-06
-2.632324481055548e-06
-3.195241447428998e-06
-5.173598310648231e-06
-3.7770075778098544e-06
1.3922284551881603e-06
8.554597116017248e-06
1.699483436823357e-05
2.09998730724692e-05
2.820771169353975e-05
4.603556976690015e-05
7.377723227364186e-05
0.00011173993902957591
0.00015398029711377603
0.00018049727975721908
0.00017916100671300228
0.00015206960256364255
9.729680232339888e-05
3.1773216051078634e-05
-2.1431535401461588e-05
-5.541739585623873e-05
-6.808794876178581e-05
-6.094821947044693e-05
-4.581270832204609e-05
-2.816502501445939e-05
-1.0875238217522565e-05
1.1840621709779953e-06
5.873827490177064e-06
8.309871645906242e-06
8.229165587181342e-06
5.892654826311627e-06
3.6216558783053188e-06
8.992957418740843e-07
-1.7831158629633137e-06
-1.6597656440353603e-06
3.0467120950561366e-06
8.105484880616132e-06
9.706923151497904e-06
8.950301094046154e-06
5.744675604546501e-06
4.6555229573641554e-06
8.543248441128526e-06
1.4079867924010614e-05
1.861266764535685e-05
2.141935874533374e-05
1.9367469235476165e-05
1.5673441907892993e-05
1.470087033794698e-05
1.6248420706688194e-05
2.1271597006489174e-05
2.649016312261665e-05
3.150436862142669e-05
3.3424459616071545e-05
3.418388052978116e-05
3.552213252078218e-05
3.743251136256731e-05
4.031274306726118e-05
4.5055857071929495e-05
5.053547863553831e-05
5.6472062283319246e-05
6.273693293223914e-05
6.643119297677913e-05
6.866825196993886e-05
6.995670958076516e-05
7.00784895570905e-05
6.963877274301922e-05
6.824156650964142e-05
6.599452376576664e-05
6.263889986257709e-05
5.8477590755501296e-05
5.719797104575264e-05
5.4708472930542484e-05
5.080670734969317e-05
4.7635220653319266e-05
4.484885107558512e-05
3.9721045254736964e-05
3.396587214865576e-05
2.5617443952796748e-05
1.8893700485023146e-05
1.3547528283197607e-05
1.0715239341152483e-05
1.1315132610434375e-05
9.92250818399043e-06
8.380170697819267e-06
4.852912979913526e-06
-1.0115055602000211e-06
-5.1925007937825285e-06
-6.379231763276039e-06
-5.814347900923167e-06
-2.2802565808888176e-06
-4.1028215491678566e-07
-2.8083373990739346e-06
-5.879619948245818e-06
-6.593757575501513e-06
-7.526403464908071e-06
-6.210662036210124e-06
-3.9460635434807045e-06
-1.6787701042630943e-06
5.531514943868387e-07
2.5387857931491453e-06
2.2244149704420124e-06
1.7017131312968559e-06
9.027505711856065e-07
-1.9344084876138368e-06
-3.254947614550474e-06
-2.832038831002137e-06
-2.5485542209935375e-06
7.58174792281352e-07
2.59080275100132e-06
1.7573796640135697e-06
-1.6219030385400401e-07
6.2516392063116655e-09
2.1160883534321329e-07
-9.726219332151231e-07
-1.0356069424233283e-06
-1.3689507341041462e-06
1.709202024358092e-07
3.1378118592328974e-06
6.466130344051635e-06
8.008517738744558e-06
7.992636028575362e-06
5.02955924730486e-06
2.1893717985221883e-06
3.6126516533840913e-07
-1.1610378578552627e-06
-2.36296841649164e-06
-2.020460897256271e-06
-1.9205085663998034e-06
-1.6795360124888248e-06
-3.0485159641102655e-07
1.1272945812379476e-06
2.14610963666928e-07
1.0862052022275748e-06
2.4021877607083297e-06
2.996082798745192e-06
2.902490450651385e-06
4.265893949195743e-06
6.421643320209114e-06
1.003803811272519e-05
1.5209576531560742e-05
2.1405606048574555e-05
2.8244697773516236e-05
3.378253938990383e-05
3.892635118063481e-05
4.021123606889887e-05
3.930114564809628e-05
3.7497906987482565e-05
3.437573570863606e-05
3.067369652853813e-05
2.5585272396710934e-05
1.8510261384108162e-05
1.3602831359094125e-05
8.63253171701217e-06
4.562925823847763e-06
1.2908202506878297e-06
-6.620538215429406e-07
-1.7746010598784778e-06
-4.196432087155699e-06
-7.633199061274354e-06
-9.250862035514729e-06
-8.444348509328847e-06
-6.573828500222589e-06
-2.5184045853166026e-06
8.126231705318787e-07
2.3347631668002577e-06
5.987448616906477e-06
1.0840811455636867e-05
1.3751186770605273e-05
1.8506455603528593e-05
2.6757287400869245e-05
4.273990725778276e-05
6.711800131142809e-05
9.912548273405264e-05
0.00013627768339574686
0.00016784970023309143
0.0001786045639846634
0.00016155267962858488
0.00011672698235543066
5.4131722208694555e-05
-5.180434072826756e-06
-4.741684119835554e-05
-6.592376450953452e-05
-6.278541411575134e-05
-4.7068899675650755e-05
-2.650349540544994e-05
-1.1678664691316953e-05
-3.5320949791639578e-06
-4.743043291455251e-07
6.948387181182625e-07
3.153809188916057e-06
3.633028313743125e-06
3.5809383689411334e-06
1.5806036799403955e-06
1.106513082049787e-06
2.9485624963854207e-06
5.990250315335288e-06
1.0772192013064341e-05
1.2067205148014182e-05
1.0483188816579059e-05
9.912736459227744e-06
6.457261179093621e-06
5.439898359327344e-06
6.3599211443943204e-06
9.555853011988802e-06
1.4728698602084478e-05
1.7915071111929137e-05
1.9636160914160428e-05
1.9867486685143376e-05
1.7322235521533003e-05
1.59113762947527e-05
1.551049604131549e-05
1.5071252505549637e-05
1.9283444430584495e-05
2.7009345217265945e-05
3.5233802464063047e-05
4.2246189082106866e-05
4.498806333685934e-05
4.3557025946938666e-05
4.3159708070561464e-05
4.7767804176146456e-05
5.5037328820617404e-05
6.332798011499108e-05
6.983359378409659e-05
6.843560220204381e-05
6.4788804024829e-05
6.242823315005808e-05
5.994371997530834e-05
6.041853566784994e-05
6.255408140987129e-05
6.14055973073846e-05
5.938128356319794e-05
5.883495612124534e-05
5.660747001456912e-05
5.228088389230834e-05
4.721303230326157e-05
3.9627119122087606e-05
3.156599927933712e-05
2.63791844190564e-05
2.467126068950165e-05
2.3111887571758416e-05
1.9326251049278653e-05
1.5720578971922805e-05
9.89416412267019e-06
6.665922342108388e-06
7.127413709895336e-06
5.951982075202977e-06
2.064788191091793e-06
-3.399199385967222e-06
-7.317641461668245e-06
-6.45413012989593e-06
-3.155690592393512e-06
8.71824454407033e-07
1.7423565168428468e-07
-2.498494154679065e-06
-4.480612801671668e-06
-5.902712928218534e-06
-2.205632426921511e-06
1.1930998198295129e-06
6.50337597107864e-07
-2.9255249955895124e-07
-3.444772687544173e-06
-6.867880074423738e-06
-7.880182238295674e-06
-6.684147706437216e-06
-3.816252728938707e-06
1.0774766678878223e-06
5.782148605248949e-06
7.750190206934349e-06
6.998358344389999e-06
4.257058776602207e-06
9.451365485801944e-07
2.0883941260763095e-06
3.937753490390605e-06
3.579220447136322e-06
4.847326977142075e-06
2.4892575538615347e-06
-1.792664079403039e-07
-1.8115728153134114e-06
-1.4532222394336713e-06
9.851191862253472e-08
6.350585408654297e-07
1.4908791854395531e-06
6.557230562975747e-07
-8.348785058842623e-07
-9.220241281582275e-08
-2.3457255338144023e-07
2.7833004878630163e-07
-1.1858750212923042e-06
-3.3439357594033936e-06
-1.967713160411222e-06
-5.009724191040732e-08
4.257551495356893e-06
7.85034796990658e-06
9.33533135594189e-06
1.2709786233244813e-05
1.669900700562721e-05
2.1506403413695807e-05
2.9233829650365806e-05
3.3598352729313774e-05
3.6418236163626716e-05
3.763236748000054e-05
3.633962819549197e-05
3.503650498259958e-05
3.5682086831911874e-05
3.347727556501923e-05
2.73969942554686e-05
2.1191954829191673e-05
1.6040288869589858e-05
1.1502122106321622e-05
8.597377359365055e-06
5.58638816983148e-06
2.2629019440500997e-06
-2.9935767997812945e-07
3.0609078294219216e-07
1.3266279665913316e-06
3.8968323679000605e-07
9.676514309830964e-07
2.1049720544397132e-07
-6.291174940997735e-07
-1.3156050044926815e-06
-3.911738190254255e-06
-7.0667966838300345e-06
-4.951343953507603e-06
4.2567955915728817e-07
8.412357374254498e-06
1.4950415675230033e-05
1.8115275452146307e-05
2.2177478285811958e-05
3.722021244811913e-05
6.248504359973595e-05
9.584373594861972e-05
0.0001343668876643278
0.00016518418431132886
0.00017192087750572682
0.00015341358118803328
0.00010766001310003048
4.4991451773057634e-05
-1.0749458738246176e-05
-5.040676137468836e-05
-6.732614076554455e-05
-6.450960381698678e-05
-4.987500858533167e-05
-2.9460004952852614e-05
-1.109125298626168e-05
-2.1305515929270769e-07
5.33878574060509e-06
4.529935267783003e-06
3.017267204086238e-06
3.1764504910825053e-06
5.357578857001499e-06
8.876784704625607e-06
1.0872880011447705e-05
1.0664445198926842e-05
8.001162996151834e-06
4.5568644964077976e-06
5.275109288049862e-06
5.5745950930941035e-06
6.280877414610586e-06
7.272438210748078e-06
5.793704644929676e-06
6.345746669467189e-06
9.165593496618385e-06
1.252320726052858e-05
1.5312507912312867e-05
1.8172212662648235e-05
1.8295090399078617e-05
1.8504695617593825e-05
2.149549163732445e-05
2.631980089518038e-05
2.831094866451167e-05
3.070349464451283e-05
3.3997839182120515e-05
3.663133634290716e-05
3.951400913138059e-05
4.360990828899958e-05
4.603721720286558e-05
4.778334471211565e-05
5.2397777722035244e-05
5.801510121727915e-05
6.173604629111651e-05
6.414613994820684e-05
6.519179714814527e-05
6.52023577458749e-05
6.660588053364336e-05
6.658812844761997e-05
6.589578038074251e-05
6.58153090853375e-05
6.274005750128708e-05
6.150630076717789e-05
6.156697088499641e-05
5.6343189726248966e-05
5.26950981338814e-05
4.696211408372619e-05
4.027533702810615e-05
3.602127389967791e-05
3.282496049905603e-05
2.9620558166243427e-05
2.6002955564763397e-05
2.034460339928046e-05
1.464792262595438e-05
6.4635682974767406e-06
-5.835125875819358e-07
-5.039341886003967e-06
-5.61939020826685e-06
-2.3551116328235366e-06
1.0495217566131032e-06
2.3190017373053706e-06
8.116419394355034e-07
-1.8225156281914678e-06
-3.3648298085608985e-06
-3.958575348406157e-06
-1.2666394013649551e-06
1.2504983715189155e-08
-6.050714773664367e-07
-1.0906677516686614e-06
-2.6237706833853736e-06
-4.303935497773637e-06
-3.9459516756323865e-06
-1.3186804608267266e-06
-6.789217650293722e-07
-4.797076371687581e-07
-7.61906562729564e-07
-7.518360689573456e-08
2.0969902152501163e-06
5.113747533869173e-06
9.300403576162353e-06
1.0210303685198596e-05
8.100823379209032e-06
6.841630579401681e-06
4.676815478887875e-06
2.630742869769165e-06
2.6646847572919796e-06
2.765593194453686e-06
6.904040219524177e-07
-3.863333404297009e-07
-1.4816006341789034e-06
-3.44946624863951e-06
-2.2130873276182683e-06
-5.844995030201972e-07
-1.2939561884195427e-06
-3.5411835597187746e-07
3.5120391430609743e-06
5.500894758370123e-06
8.013388651306741e-06
1.0625454251567135e-05
8.82955407632835e-06
4.266772634764493e-06
4.2274268707842566e-07
-2.0649706584663363e-06
2.7786200007540174e-07
6.349577574837895e-06
1.5084510550877894e-05
2.3838392849029333e-05
2.9980300382703717e-05
3.272359083439369e-05
3.5101844787277514e-05
3.613184094319877e-05
3.6465300581767224e-05
3.576029916985135e-05
3.3387396342732245e-05
3.153060549720976e-05
3.088381959059916e-05
2.829134473358863e-05
2.498359742730827e-05
1.9086045540461782e-05
9.097852284867258e-06
9.303241768066073e-07
-2.7212894337935722e-06
-2.425548700557556e-06
-3.0988439903012477e-07
2.0596919512172462e-06
1.948772819559963e-06
8.598805152360001e-07
7.030104143268545e-07
1.2347001074886066e-06
3.5434345591056626e-07
-1.6595929537288612e-06
-4.0536336882723845e-06
-4.426762870934908e-06
-1.7313174112132401e-06
5.72060037029587e-06
1.3961048125565867e-05
2.0568338186421897e-05
2.728369429405575e-05
3.833526920971053e-05
5.594348306203756e-05
8.43570181814357e-05
0.00012300995228997635
0.00015678027568810649
0.00016877411223958916
0.00015269196126155293
0.00010948412466404989
4.843787996833271e-05
-4.667566258831357e-06
-4.1710229083946615e-05
-5.730433588269079e-05
-5.5956725645955885e-05
-4.4538966562868154e-05
-3.0022302553334157e-05
-1.6523776821486535e-05
-7.489535505555978e-06
-2.6165814688283717e-06
-4.6547143028874416e-08
1.415145334249246e-06
4.022547500426299e-06
5.527749067368859e-06
6.509397053378052e-06
8.27104656764277e-06
7.44048315937107e-06
6.653700665992801e-06
5.2990601489000255e-06
5.303520651978033e-06
5.6270426966875675e-06
6.286610300776374e-06
1.2150152997492114e-05
1.4608388596570876e-05
1.5480509205190174e-05
1.5523467709499528e-05
1.206961428579234e-05
6.1981963881407864e-06
4.819941409550665e-06
5.585170356425806e-06
5.663047318194003e-06
9.496850111645472e-06
1.4135914625512669e-05
1.793656008430844e-05
2.22428865299662e-05
2.918008772212488e-05
3.892794836701796e-05
4.421991752678878e-05
4.94069795422547e-05
5.277632283195999e-05
4.9240677299167146e-05
4.622425387879048e-05
4.6458466272270016e-05
4.999161262730922e-05
5.597619258423947e-05
6.338689092899585e-05
6.843025403213687e-05
6.811093214764696e-05
6.760067424238514e-05
6.738578429121844e-05
6.451317824485159e-05
6.370592166149436e-05
6.286159919000056e-05
6.105309898885025e-05
5.932441467848548e-05
5.5690328167656844e-05
4.705940068561176e-05
3.8149275724208564e-05
3.0370139597835077e-05
2.5534723249620583e-05
2.1792762254335685e-05
1.7452056908950908e-05
1.2851190604123985e-05
8.626024623481499e-06
5.7589249990996905e-06
6.280349452936207e-06
5.951563025519135e-06
1.9777884290306247e-06
-2.8503047815320315e-06
-7.537082069575263e-06
-8.255817647295771e-06
-6.543782660628494e-06
-3.272619551353273e-06
2.1094012936373474e-07
2.702740857785102e-07
-3.049565634682949e-06
-7.348043254751246e-06
-1.0526514984121604e-05
-1.127092173192068e-05
-1.041301766235847e-05
-7.327978778448596e-06
-3.973258230871579e-06
-3.167078716614924e-06
-2.516520908102393e-06
-1.567132244417735e-06
-1.7977725974560599e-06
7.593189366161823e-08
1.4415660416489118e-06
1.5419495866808575e-06
7.424270052069915e-07
-4.3362479118513875e-07
-4.4317164338281145e-07
4.984788120054873e-07
8.238814643846126e-07
1.6654431647111778e-06
2.3714121653028997e-06
1.961218231372186e-06
2.152799311261333e-06
-1.862067279034818e-06
-2.815766492858529e-06
-1.605180273145379e-06
9.56671442509105e-07
3.0449127734755166e-06
4.369441739981994e-06
3.041830154870695e-06
1.4694760466227308e-06
2.1176598465899588e-06
3.513594720061519e-06
5.857971245859517e-07
-4.541146836345433e-07
3.256116087868577e-08
5.638244147121441e-07
5.740983851865167e-06
1.2302440381972701e-05
1.704434214389039e-05
2.0970617129023594e-05
2.436379406844935e-05
2.583922150733997e-05
2.9079336059112393e-05
3.5047065125581867e-05
3.935985023417743e-05
4.2293745423194196e-05
4.237076473145862e-05
3.567632245449204e-05
2.7897788527297962e-05
2.3099938061932335e-05
1.8963053889820003e-05
1.4169842302180768e-05
1.0131345220543153e-05
2.7571882128540892e-06
-5.737252536164306e-06
-9.818364446800842e-06
-9.260703109248425e-06
-5.9723961385316215e-06
-2.794881538648042e-06
-3.024406169060967e-06
-2.904606276388222e-06
-4.15356169014558e-06
-3.3440346669522114e-06
9.125661790676531e-07
2.3562122350995196e-06
2.431138227620977e-06
5.285922043185565e-06
1.1259280881859013e-05
1.9182715277565876e-05
2.902892970269022e-05
3.9752682596372324e-05
5.610271705336345e-05
8.219639732942596e-05
0.0001149860217992682
0.0001432184251370927
0.00014837088269814558
0.0001243610770416126
7.852809233099833e-05
1.733353201416321e-05
-3.43489612077974e-05
-6.754239859674271e-05
-7.82985061960062e-05
-6.60755621311182e-05
-4.318687513205077e-05
-2.2234954485611524e-05
-6.787675147279515e-06
4.283776320335164e-06
9.251983783542528e-06
1.1575171015465457e-05
9.243197268915537e-06
5.083246719550516e-06
5.199350539442094e-06
4.491769232117804e-06
3.588605522963917e-06
4.209690359857632e-06
2.734038389462512e-06
1.0075909813167527e-06
2.2762957314625965e-06
2.856314722521347e-06
2.643594143592054e-06
3.32008767145453e-06
6.406227157640387e-06
9.760424745763885e-06
1.2650016969928402e-05
1.4402289821191516e-05
1.4140922075966955e-05
1.0641635526553728e-05
7.838329224796325e-06
9.261709578822774e-06
1.636126330595289e-05
2.4885605967028823e-05
3.138464842322719e-05
3.5550319694266364e-05
3.660200934518798e-05
3.8388481243600836e-05
4.3407455677879625e-05
4.8429429966745374e-05
5.187651345295308e-05
5.449952425351512e-05
5.543962663523416e-05
5.6764260193631344e-05
5.6398379456368275e-05
5.6467401464033173e-05
5.935169758686243e-05
6.499894095668424e-05
7.116520134786697e-05
7.682031264266698e-05
7.635751126144896e-05
7.05532687561572e-05
6.656685525285866e-05
6.313248832157115e-05
5.728703229124221e-05
5.348542788397026e-05
4.614671684066707e-05
3.894466783549433e-05
3.5138694897796086e-05
3.0414966204261873e-05
2.525863772007142e-05
1.9983107904408826e-05
1.4186613157107786e-05
9.693920674180845e-06
7.955186561048322e-06
4.454399004316656e-06
-2.6064202529596514e-06
-6.487609766736568e-06
-6.057362270439626e-06
-5.897191613257746e-06
-2.7874723400600487e-06
-1.2270604656805517e-06
-2.367258844060416e-06
-4.18641252508678e-06
-3.7620088733092416e-06
-2.2469043869932648e-06
-3.4268972513018525e-06
-5.446963200483879e-06
-3.795870043177274e-06
-2.914383230745443e-06
-1.0036097819465795e-06
9.024467999552144e-07
1.2144428183091804e-06
2.5639337764005177e-07
-6.585594292118913e-07
-1.5759343341414933e-06
-3.54056055584806e-07
9.301272712036734e-07
2.757138872766518e-07
1.2895372947241412e-07
3.5798609587800456e-07
8.327231171278981e-08
9.689056241768412e-07
4.343924956629053e-06
5.934067644375318e-06
9.94270044429868e-06
1.3268418229017698e-05
1.2458655078262382e-05
1.0541237202232878e-05
6.650173645539326e-06
2.663202167241252e-06
2.3591787794430275e-06
3.42505813932803e-06
3.4332529139646795e-06
3.351022201059095e-06
6.175204930514155e-06
7.993931717464875e-06
9.026955467561493e-06
1.0678588751034113e-05
1.2132973438383488e-05
1.8121165567208664e-05
2.5743192736626952e-05
3.3259751262448844e-05
3.950437644562044e-05
4.090012510005181e-05
4.162567904586467e-05
4.181998735930392e-05
3.915534580301028e-05
3.593068709051295e-05
3.3295276125500095e-05
3.305964401079109e-05
3.023710439720162e-05
2.5906065047820448e-05
1.9848806346089987e-05
1.2713709111267235e-05
1.0405267630630988e-05
1.0120812589775596e-05
1.0177496278629405e-05
1.2086315450687835e-05
1.0925889114332676e-05
9.979936407944479e-06
8.069685236478108e-06
6.191967599988857e-06
6.424557341233594e-06
8.65276388140046e-06
1.0528201869419718e-05
1.1591530892474111e-05
1.7292393408752105e-05
2.432825135656458e-05
3.516079607379652e-05
4.748946889776562e-05
5.7201425647690485e-05
6.949104488285229e-05
8.758079309245659e-05
0.00011114333415207511
0.00013952586925825017
0.00015108616037196043
0.00013651846461470996
9.983164420646062e-05
4.235748758674163e-05
-1.5290975397874718e-05
-5.24942219044533e-05
-6.826362266565411e-05
-6.461663497248082e-05
-4.823815720556013e-05
-2.971115384298173e-05
-1.3284875421959441e-05
2.1275403696563444e-06
1.3870603652321734e-05
2.550654494370974e-05
3.310242220777582e-05
3.154161504426156e-05
2.817347365180467e-05
2.306628209680639e-05
1.9623272919488954e-05
2.1854821511624323e-05
2.5930529091056087e-05
2.7811371978714305e-05
2.8498838901214185e-05
2.824258149303205e-05
2.807365115131688e-05
2.6586374133330537e-05
2.683246350443369e-05
2.565776139817899e-05
2.319417262697243e-05
2.321547913197719e-05
2.4522059788978368e-05
2.4505793589923996e-05
2.657239201653283e-05
2.8146368663328758e-05
2.8198068548590527e-05
2.954561023216229e-05
3.401994968044164e-05
3.942060186545859e-05
4.371151737814216e-05
4.837853430217365e-05
5.310401252245356e-05
5.791658861653559e-05
6.19040550873251e-05
6.685292078145721e-05
7.057747939143155e-05
7.395307716251409e-05
7.850944120946224e-05
8.441290754035435e-05
9.057825286618026e-05
9.533862089483591e-05
9.816980207233428e-05
9.847146759511816e-05
9.594793380074407e-05
9.480789594817907e-05
9.251296637557971e-05
8.896170402294956e-05
8.270155501577392e-05
7.678205588490528e-05
7.301768005163467e-05
6.798705464916566e-05
6.394486649696773e-05
5.8585139072420134e-05
4.8670866021893744e-05
4.296413237625529e-05
4.176170727987483e-05
3.892017673479131e-05
3.463484506482928e-05
2.7543919031813857e-05
1.8193732330473722e-05
1.1382885077182436e-05
8.5180092810333e-06
7.871598654674017e-06
8.045485174079658e-06
6.249143666536838e-06
3.5521446761777042e-06
-9.44488192544668e-07
-3.840793624476646e-06
-5.3817128673472325e-06
-4.379481538308028e-06
1.3003030971958651e-06
6.73907175041677e-06
9.740925406731549e-06
1.0972306426992873e-05
6.030685881341924e-06
1.7793580582292634e-06
1.3017362334721838e-06
4.063302981194283e-06
7.401370680781838e-06
9.763909702087403e-06
7.955397450132295e-06
4.088920377398608e-06
1.934455440277816e-06
-2.4641474283271236e-07
-1.5074977000040235e-06
-2.3292159312404692e-09
3.1211629902827553e-07
-4.402013473736588e-07
6.111799848440569e-07
-2.585182983239065e-07
1.7013393289744272e-06
4.111269049644761e-06
5.583094548455847e-06
6.095402341088629e-06
4.903090598418203e-06
3.1083184239832917e-06
3.2493023809365695e-06
2.585211973382684e-06
3.9149681470007636e-06
5.439468736767594e-06
5.3536999757852755e-06
6.7977210846947855e-06
9.286506269745587e-06
1.1961958421125019e-05
1.7657312127994373e-05
2.354072046273359e-05
2.815523600929737e-05
3.324831402551354e-05
3.626238856213604e-05
3.84402561621755e-05
3.8726732441318745e-05
3.619365247686801e-05
3.17613049674037e-05
2.847124812888069e-05
2.5854656314550084e-05
2.729810637447372e-05
2.8012441475766536e-05
2.561911787779536e-05
1.8397481767351564e-05
7.949572250254278e-06
-2.5315844141005073e-06
-8.35170919799566e-06
-5.19520619945979e-06
3.1208357995637925e-06
8.269888098766387e-06
9.386348779116815e-06
4.4652498445429956e-06
-1.4109444919085945e-06
-1.7180484519485617e-06
6.632061513300869e-07
4.114612920602667e-06
7.801465926604578e-06
1.3352858331927564e-05
2.1395623889475246e-05
2.973967264097155e-05
3.946306219404505e-05
5.320964908150927e-05
7.372390632554016e-05
0.00010232267720766686
0.00013301582316671556
0.00014919084969733376
0.0001372718738821277
0.00010526331527671573
5.580851814102061e-05
2.9815729476467823e-06
-3.6233334640201065e-05
-6.23907549197611e-05
-7.218116729745816e-05
-6.309431626050355e-05
-4.5038121243123896e-05
-2.438486058053968e-05
-8.322088319800969e-06
-4.7659875690442277e-07
2.6238193413519184e-06
3.0919445634935983e-06
2.61039519955375e-06
2.1132613028385094e-06
2.5002508436955395e-06
2.596319859549112e-06
6.4610690060362685e-06
9.57596603257116e-06
1.0378873298577673e-05
1.134262117830076e-05
1.378653462325019e-05
1.669459788899985e-05
1.996329672238062e-05
2.1518811763598933e-05
1.9426882772677345e-05
1.6196699448300933e-05
1.3963977153252927e-05
1.2805161190954095e-05
1.1670882940961746e-05
9.126474992626754e-06
8.81020309861924e-06
8.01672138095455e-06
8.4316088759806e-06
1.2454645911930129e-05
1.8221500795334578e-05
2.2880299070493493e-05
2.6292208872291667e-05
3.0116835432636435e-05
3.43292546176599e-05
3.990115590113419e-05
4.67858470756255e-05
5.10706813656725e-05
5.1689724841708085e-05
5.220250056936493e-05
5.716898328955722e-05
6.538576155890041e-05
7.139095123420702e-05
7.48033281752214e-05
7.089207008448284e-05
6.396602952918329e-05
6.117108500802715e-05
6.0700156723214604e-05
5.9461186424414336e-05
5.8407239066582406e-05
5.296497101880959e-05
4.68689081571938e-05
4.237916721194779e-05
3.781444638661924e-05
3.005256348842522e-05
2.1724790826738172e-05
1.7281790405831998e-05
1.3073068771518592e-05
1.1895138072759437e-05
1.159196358457848e-05
8.123916359181749e-06
4.645728154173412e-06
2.0349431224531145e-06
-1.4731132296219585e-06
-5.6158587540267035e-06
-7.784287049616978e-06
-6.992577368691855e-06
-6.66963467210735e-06
-4.860556828134577e-06
-5.726623385271523e-06
-1.0077922411255713e-05
-1.2953819350514095e-05
-1.2739906651404453e-05
-1.2223682347212161e-05
-1.0807072158058872e-05
-8.982072586150025e-06
-6.815789674874395e-06
-3.700574211507046e-06
-2.488038717274321e-07
2.3337830725722597e-06
1.0093943956235307e-06
-2.0752544287461205e-06
-3.6001061971546733e-06
-3.3939523973458563e-06
-1.0206282468061545e-06
1.2653256362682441e-06
3.9413316699210554e-07
-3.883409931404458e-06
-7.627524951203668e-06
-6.477051101683173e-06
-2.857336539818789e-06
1.7676348988970858e-06
4.239456302457256e-06
4.504516709857853e-06
1.965850970009342e-06
3.544204218997038e-07
8.630793217889732e-07
-3.407611757211271e-07
-2.4000380562938517e-06
-3.934411665795778e-06
-3.910347686542082e-06
-6.324526111711748e-07
2.3718254169580177e-06
3.6643407383962767e-06
2.297656237715273e-06
-1.647388103265257e-06
-2.9265821694934857e-06
9.614097962185042e-07
7.883494049565343e-06
1.4704685668220918e-05
1.9772967561948462e-05
2.4117429347825237e-05
2.7364177640265552e-05
3.1339938573182735e-05
3.471029742740939e-05
3.473192793990165e-05
3.2897720757318893e-05
3.2091819889501494e-05
3.216359277757874e-05
3.040679598598217e-05
2.586970128959365e-05
1.7078739915632468e-05
8.110583280540595e-06
2.1583720126727712e-06
1.484952804275963e-06
1.7748732261679834e-06
2.134639771611546e-06
5.291576599120162e-07
-3.6293038192525273e-06
-5.761921784142032e-06
-6.1593887039634865e-06
-6.636464149778476e-06
-4.375616754259681e-06
-2.85206226635637e-06
-3.497349780445802e-06
-3.8137540059324238e-06
-3.929537115254789e-06
7.813574711690308e-07
1.0163919682781852e-05
2.1402186121122213e-05
3.335336282361823e-05
4.763603442370368e-05
6.597069091185404e-05
9.422536481906718e-05
0.00013053128509454837
0.0001616756186422208
0.000168218504086326
0.0001517041832812538
0.00011061713712479104
5.0025530754282954e-05
-2.0753201397383236e-06
-4.052318661251775e-05
-6.303651298367186e-05
-6.420019690267509e-05
-5.3454245858119975e-05
-3.6709999335471366e-05
-1.915335258217965e-05
-5.276851084090595e-06
3.4935341091113514e-06
7.060357916088833e-06
8.15603311821178e-06
5.744863528889255e-06
3.1924495260682306e-06
1.49160086948541e-07
-2.29370198212564e-06
-2.8987091127419262e-06
-3.825300836979295e-06
-3.4743314927254687e-06
9.13827307158499e-08
2.2751008827981423e-06
5.631950102724659e-06
8.570592967771518e-06
8.138806265378662e-06
7.507128316319722e-06
7.405750693578739e-06
8.800283126220165e-06
1.0605105444483343e-05
1.09152057348183e-05
1.2665492022279068e-05
1.1796472222158627e-05
1.0030298199126264e-05
1.0380465596426802e-05
1.260420617654745e-05
1.9175522879777418e-05
2.7664949243444426e-05
3.47138116012502e-05
3.8527377341779356e-05
3.978960546646704e-05
4.157408022820164e-05
4.4005084191667265e-05
4.637647919025767e-05
5.028360089909256e-05
5.46130572729453e-05
6.125242418875132e-05
6.497659705928527e-05
6.553662149144657e-05
6.352799073283677e-05
5.993303170725994e-05
5.697374240298814e-05
5.6023091019596905e-05
5.6135508771149034e-05
5.7355011790605204e-05
5.860050794126437e-05
5.8177754226562683e-05
5.312062285156571e-05
4.4315106606518384e-05
3.699716205574077e-05
3.1010616112325806e-05
2.397868377101986e-05
1.8211615724794683e-05
1.223195351940376e-05
4.982456175639527e-06
2.866492422981537e-06
2.8815394443881814e-06
1.81405880539387e-06
-2.410608885838883e-07
-2.9621064641105477e-06
-3.9932414210852585e-06
-3.1585661872668425e-06
-2.144436507478531e-06
-3.0894944984538597e-06
-7.2904463195300195e-06
-8.8824374415708e-06
-7.380868737527635e-06
-5.6293255283890176e-06
-6.154019729365245e-07
1.5568784874631092e-06
-1.893901071525761e-06
-1.0120496654053568e-06
-2.056895937130321e-06
-4.286899184080539e-06
-4.041946908728278e-06
-5.675688043993432e-06
-6.692405690955638e-06
-6.118308533586969e-06
-4.732003048957267e-06
-3.865928988489031e-06
-1.5874555856498773e-06
1.0469952940184157e-06
2.7593830509431427e-06
1.5825619357201504e-06
-3.2489924706169404e-07
-1.4882260757076438e-06
1.3578072639575112e-06
5.286614396027289e-06
8.499681939611037e-06
7.110491765160987e-06
2.9548876909757382e-06
-4.538300117928884e-07
-1.514560835857992e-06
-2.6809935889104963e-06
-3.800071908699465e-06
-3.523180339470855e-06
-2.527568085497478e-06
2.797678462229669e-07
2.7201559760214877e-06
3.7103291106177494e-06
2.166979129469837e-06
2.4365499484702013e-07
5.830193003930617e-07
2.6588261334836716e-06
2.4284439632538124e-06
2.1889441086386796e-06
6.2088349750411e-07
-1.6182968920475105e-07
1.5560787005597376e-06
6.718653025927779e-06
1.776160308963881e-05
2.9767132332381152e-05
3.7872955999773694e-05
4.5442997816280695e-05
4.772221564053325e-05
4.7028142944327556e-05
4.563221466469258e-05
4.128052694341022e-05
3.3766907677090785e-05
2.7480271228341735e-05
2.1696354679079377e-05
1.574805708060012e-05
1.1272918982285773e-05
4.348448669588834e-06
-2.919846565418993e-06
-6.587246957678872e-06
-9.184449822896568e-06
-1.0998245102200599e-05
-1.1112283118563937e-05
-9.1868323579547e-06
-5.9411096344774705e-06
-3.427644060138846e-06
-1.955271386577806e-06
-4.246918592798465e-06
-6.744846245965164e-06
-7.43219857213262e-06
-4.2652765159800765e-06
7.393114174192306e-07
6.59694921978371e-06
1.2937563383275119e-05
2.2755584950573393e-05
3.801471893893904e-05
5.9472040334185294e-05
9.104031460083206e-05
0.00012962196831267647
0.000165329206424758
0.00018150505979974696
0.00017095098257868813
0.00013415028683994024
7.54615416553861e-05
1.9397229038986552e-05
-2.2122372456578887e-05
-4.74418601470461e-05
-5.31525803353361e-05
-4.642735382276442e-05
-3.2147163210538565e-05
-1.7426275121579238e-05
-6.593382636310707e-06
-2.2401354726753198e-07
1.8460502815287327e-07
-1.9363842511666007e-06
-2.231529947493982e-06
-2.3674026579101337e-06
-3.765607289096806e-06
-5.5031835017871344e-06
-4.142289640185481e-06
-3.0971476689956035e-06
-7.143933089537313e-07
2.4563992155890446e-06
3.810379439528333e-06
6.540218464579084e-06
1.031257795602869e-05
1.4129491432868235e-05
1.568525146922184e-05
1.3341297858460166e-05
9.350354389425775e-06
8.984013675217284e-06
1.0132849070032535e-05
1.3172197554922604e-05
1.642041581817466e-05
1.6053998365350708e-05
1.5146502846619114e-05
1.4880140270179254e-05
1.527660913325235e-05
1.8481121742297546e-05
2.2563072889170144e-05
2.761837822617963e-05
3.180155829340947e-05
3.5519900279723515e-05
4.2118325040974014e-05
5.053909876551188e-05
5.873982502180297e-05
6.436782700802723e-05
6.423681884371035e-05
6.185135339364933e-05
5.9186817679801607e-05
5.872082692803815e-05
5.952408525899955e-05
5.9410649214441946e-05
6.022859042786877e-05
6.122707497979718e-05
6.143740552033705e-05
5.738844799907383e-05
5.263046330128418e-05
4.7210008688125527e-05
4.137555481520394e-05
3.796653288645757e-05
3.4853108104471175e-05
2.9409905664579128e-05
2.4050317961155088e-05
1.590850217780826e-05
1.0626577250150149e-05
7.504616860387614e-06
3.646808750090713e-06
3.698255000017525e-06
4.987446118320804e-07
-2.881530235754326e-06
-2.5500953597656917e-06
-1.8630726117407903e-06
-3.804228754233918e-07
-4.002459945695591e-07
-2.996439320668287e-06
-5.998128585815721e-06
-7.629968195033143e-06
-8.159644039551495e-06
-7.762382779219479e-06
-5.386046723288018e-06
-3.3397441256965976e-06
-1.3890992249798728e-06
-3.6005712900077924e-07
-8.231213541876059e-07
-3.9525343709101435e-07
1.8454546761859092e-06
4.093409415872884e-06
4.315486535233504e-06
1.1926666729777935e-06
-1.8087212083628401e-06
-3.7349785770857125e-06
-3.028862806786492e-06
-2.438620981592976e-06
-2.6957933414450963e-06
-4.130320007789123e-06
-6.3273024579757475e-06
-6.325351137093094e-06
-3.1634905326427543e-06
3.534747747835354e-07
3.859181560983416e-06
6.244521728149266e-06
5.30114368757495e-06
3.923313329323719e-06
1.078008040167333e-06
-8.879857205101871e-07
-2.4435331624772516e-06
-3.822408757514495e-06
-5.4239860673988005e-06
-6.333947908387927e-06
-7.3770044082266395e-06
-4.519264280133939e-06
1.8585840280138655e-06
6.15742203535774e-06
9.117927447732654e-06
9.604489832781837e-06
6.249332500374294e-06
5.021792958359583e-06
3.559080255399749e-06
2.7289310082778684e-06
2.4368639515159884e-06
2.1748246581410058e-06
3.808726319221023e-06
3.2169099313250626e-06
1.8508565062802518e-06
1.3179018196751713e-06
1.6889626976990257e-06
1.671019504101423e-06
2.4673908001204836e-06
3.579521489882609e-06
5.356183237381629e-06
9.349057904728397e-06
1.8849730054171232e-05
2.6650864356270176e-05
3.194594364686054e-05
3.665999122404173e-05
3.64543542445972e-05
3.640268926119461e-05
3.808555459272611e-05
3.7387606425909325e-05
3.735014911399048e-05
3.293741519883042e-05
2.6821082428796217e-05
1.9783313632615318e-05
1.2310760780565033e-05
5.6553112699475605e-06
-1.0194830792897847e-06
-3.919923528883373e-06
-3.2010300401452696e-06
-2.8612554388018907e-06
-1.5236638546411996e-06
-1.4108468349149916e-06
-1.982443791348487e-06
-1.7966974610317266e-06
-2.6944092041958356e-06
-2.929240963567281e-06
-6.854635898889683e-06
-8.37996094560367e-06
-6.479230023614946e-06
-2.90898242383264e-06
4.136268898946582e-06
1.1929471952498716e-05
1.8927110772892775e-05
3.3874268183353706e-05
5.62939208066382e-05
8.980477991826774e-05
0.00013290019819578447
0.00017236296605460666
0.0001937776623890386
0.00019003399540906685
0.00015761342604037054
9.85930197430207e-05
3.599862907321949e-05
-1.564450178648258e-05
-4.893058201105305e-05
-5.8652726920627174e-05
-5.048488321790501e-05
-3.366078669841954e-05
-1.8212558074992558e-05
-5.808072501167771e-06
2.0908460101054516e-06
4.638648306354298e-06
4.495875373322633e-06
2.5798835849855095e-06
1.436463662685128e-06
-1.6570944580962532e-06
-2.4022159550440847e-06
-1.1370684660505503e-06
-5.239319307293044e-07
-1.0398252925369889e-08
1.3141626595825073e-06
2.302437565049331e-06
3.8189809856703505e-06
4.286630996830354e-06
3.075201789215498e-06
5.277692025629221e-07
-1.4370589269674383e-06
1.7237205156561686e-06
6.965853117435472e-06
1.0787413316393213e-05
1.3061063555142027e-05
1.1050195212192193e-05
9.281987672693504e-06
1.186220822546602e-05
1.687881297129934e-05
2.2583547320209618e-05
2.7937017648582696e-05
3.388260063275084e-05
3.634998063262174e-05
3.653239002687769e-05
3.638917200987635e-05
3.702243350289791e-05
4.078748622760031e-05
4.979727293630276e-05
5.809770891573862e-05
6.199132644724159e-05
5.9289964951858565e-05
5.44968795566092e-05
5.134351022206829e-05
5.209714493048523e-05
5.558797101912205e-05
5.408389472449926e-05
4.929544024889765e-05
5.038970050463831e-05
5.303555849422992e-05
5.846931185260473e-05
6.218352530140692e-05
5.845779139690421e-05
5.086561088774033e-05
4.128892544486007e-05
3.396668921595847e-05
2.6912569410342257e-05
2.0491578311521153e-05
1.6191051827263436e-05
1.3324684914550744e-05
1.003145303002384e-05
8.123615543809137e-06
7.289385280273564e-06
6.146042551335995e-06
4.7659112851761165e-06
3.034454721273505e-06
-2.2398097598852473e-06
-7.153445153562643e-06
-9.082373594537785e-06
-8.595833378421958e-06
-7.933261713333195e-06
-6.297599611571059e-06
-3.6787198496313067e-06
-2.910854504989402e-06
-1.725060656099231e-06
1.0153653420275077e-06
1.7243719412363134e-06
1.596646711732319e-06
1.6922319900913863e-06
1.724337835184997e-06
3.0926034924050327e-06
2.250665488645609e-06
6.472433824455948e-07
-1.5309756236092653e-06
-4.497405939218879e-06
-5.472650968840753e-06
-3.870432465191698e-06
-3.2630146051815245e-06
-8.467402494716225e-07
1.658343762755976e-06
4.3901334265683545e-06
4.826797749046818e-06
4.317741741033387e-06
5.606529384749592e-06
7.382800504274201e-06
1.0252400215904345e-05
1.0921000125563296e-05
6.997734999458771e-06
4.022833081762656e-06
2.4136503498084494e-06
1.3814417343382956e-06
8.262469464170863e-07
9.062063099918305e-07
-2.838363570845104e-07
-1.5322812032536604e-06
-4.637471420210204e-07
-4.3771706259576604e-07
8.438373697572388e-07
3.5824755286739673e-06
5.750236482526816e-06
5.611332426269655e-06
4.069754027113959e-06
-3.2729906251915963e-07
-4.057897513121134e-06
-4.239735631017538e-06
-1.1622586271187174e-06
2.4700797212062753e-06
7.435855764015287e-06
9.084802172765194e-06
5.928191626480839e-06
1.739357230690075e-06
5.701919008060941e-07
-3.486888999759685e-08
5.587565965470276e-07
1.2641187367989914e-06
-1.2910390978504438e-08
-2.9897171316406457e-07
3.640535624072072e-07
1.465970399294747e-06
1.845563815550122e-06
1.0768084166556946e-06
-1.0432879662403138e-06
-1.545087798149325e-06
-1.5706052636232926e-06
-2.1124435534147779e-07
2.3314091777137946e-06
3.89276920031989e-06
3.769480031223793e-06
2.924605951193371e-06
1.3207293250161456e-06
1.5350751709775068e-06
5.8297758869230165e-06
1.0503778980819334e-05
1.3177684309084725e-05
1.5055014387144183e-05
1.4112788221609662e-05
1.2936757798343024e-05
1.703330212876608e-05
2.417813357169507e-05
3.1437093070962874e-05
3.622718247697776e-05
3.710045325533429e-05
3.733206335709838e-05
3.91868621818503e-05
4.0421821836389427e-05
4.1763610965972475e-05
3.830377727354062e-05
3.166826331835182e-05
2.3811773985471518e-05
1.514864868568111e-05
6.953939305276435e-06
1.311142000304244e-06
-1.978714067263354e-06
-1.1884708328580018e-06
8.424045745414332e-07
1.8047842331725406e-06
3.970914121964597e-07
-2.274510961797205e-06
