1.0929316204055795e-05
1.1093365856140736e-05
5.940234245827014e-06
1.814798338273249e-06
5.750328000431182e-07
2.260612859572575e-06
4.8271676860167645e-06
6.431007932405919e-06
1.5417846270793234e-06
-6.80193124935613e-07
3.993086465925444e-07
6.283524953687447e-07
2.2122936798041337e-06
1.990493046832853e-06
-1.2313770412220038e-06
-2.554413413236034e-06
1.6033900465117767e-06
5.561708007917332e-06
6.205031922945636e-06
8.396429734602862e-06
7.1754620876163244e-06
-8.108160045594559e-07
-2.0404611404956086e-06
-3.0746189167984994e-06
-4.5527064003181295e-06
-2.1090116888444754e-06
1.052514448929287e-06
2.258534209431673e-06
5.374604711505526e-06
6.846530936854833e-06
7.6771988233304e-06
7.349337010964518e-06
9.05347189927852e-06
1.237259857589379e-05
1.9262685327703366e-05
2.1913445038990176e-05
2.1516495507967193e-05
2.5954571015063266e-05
3.0749262350582285e-05
3.415699063680222e-05
3.5407133282205905e-05
3.180539988534292e-05
3.142463685890107e-05
3.226670958156319e-05
3.478231064946158e-05
3.530564947595849e-05
3.0111937007859524e-05
2.3723234221506573e-05
1.3646206184603216e-05
8.572633760195458e-06
4.636792255041655e-06
2.298670665368263e-06
6.536666660394985e-06
7.0482067258126335e-06
4.363192829259788e-06
8.781009910308057e-07
-4.403794150675822e-06
-6.774926646357926e-06
-8.378044185519684e-06
-3.724908538060845e-06
-7.251173883560114e-09
4.946821263729362e-07
3.524120074871462e-06
4.757831561619241e-06
5.957097073405748e-06
6.333526471280493e-06
1.2116322636757104e-05
2.2002614400662424e-05
3.722812573414558e-05
6.212827747731353e-05
9.51434395801698e-05
0.00013880717233405448
0.00017536919438043697
0.00018639963229816203
0.0001762764757131663
0.00013321127266863186
7.238957516619848e-05
2.3834142439227435e-05
-1.69584282048163e-05
-4.022502548650664e-05
-4.195648045879352e-05
-3.864118218643853e-05
-2.8622386366805586e-05
-1.9038111304325867e-05
-9.117934268942918e-06
-1.0598607786960201e-06
3.306776079625706e-06
3.7833144688192988e-06
7.392163752228953e-07
1.6457988749607466e-08
1.6803531934783678e-06
5.264585752229323e-06
6.04623528488446e-06
4.398463033794542e-06
7.497066462747171e-06
1.2111671480852237e-05
1.4467513892668649e-05
1.892150589810626e-05
1.7821053006628063e-05
1.1993355315098597e-05
7.09569383161579e-06
5.981226081530622e-06
1.030183238981408e-05
1.5482425851587323e-05
2.055736547390552e-05
1.937450952027575e-05
1.5203005773400946e-05
1.3796883877148503e-05
1.7624963220441714e-05
3.003560925662896e-05
3.639547958300682e-05
4.3015905930587905e-05
4.618193827354844e-05
4.380106202006573e-05
4.400892919420585e-05
4.56008539231334e-05
4.687109367296216e-05
4.957705357355735e-05
5.0700943234005535e-05
5.059390775841166e-05
5.045661305302929e-05
5.264195738163835e-05
5.767664970335318e-05
6.04262609158468e-05
6.351223169076547e-05
6.677391843368241e-05
7.049719772567187e-05
7.270886737842375e-05
6.974832012929255e-05
6.314393090178783e-05
5.66584026273631e-05
4.7929854417816387e-05
4.2324754076616955e-05
4.213548118059407e-05
4.3233845076429134e-05
3.9294470070672105e-05
3.434790608025651e-05
2.5129903178822133e-05
1.2134088137827348e-05
8.010269311853335e-06
4.158193860348547e-06
3.0764537086724886e-06
4.3467159684951184e-06
1.5086998246260919e-06
2.949435156551772e-06
2.7173570060767815e-06
6.64728531774017e-07
5.193838887862512e-07
-1.6827849549372331e-06
2.144949803550844e-06
4.421919243213779e-06
2.9095883746776963e-06
1.9130911823594943e-06
-2.5616562879804405e-06
-4.375057528704929e-06
-1.7031737797879032e-06
9.257955753128044e-07
5.0344816600045306e-06
7.85498593813827e-06
7.073004553603823e-06
5.05860236899025e-06
3.957279659516644e-08
-3.7443207929754863e-06
4.5018282435194124e-08
5.81417907596915e-07
3.0235393069233396e-06
2.939033265647595e-07
-5.3454388080353965e-06
-6.543282438542519e-06
-4.8734691517893225e-06
-8.194551810447592e-07
6.333206897579657e-06
8.977523862085945e-06
7.013907406872022e-06
6.534949193337525e-06
1.5332250313804252e-07
-3.352814246682101e-06
-1.2584725936903851e-06
1.9272426925454056e-06
6.534224326060212e-06
7.40448820124584e-06
3.445369429755374e-06
-2.1424947362902458e-06
-5.229771772974345e-06
-2.668195406840823e-06
3.2655032100592507e-07
4.509289510679082e-07
-1.9593865090428153e-06
-2.3851289370213635e-06
-2.2679262201563688e-07
-8.878502057996229e-07
1.850280227699841e-06
3.353621536916762e-06
1.8743561440714984e-06
4.147995468883892e-06
5.22203436048585e-06
2.230626250820933e-06
5.04202375850582e-07
-9.831536544879782e-07
-7.260825896082679e-08
-4.308581083023455e-07
1.6977262475847965e-06
4.487956516641134e-06
6.276745352806756e-06
1.0161801810681936e-05
1.5701204915785638e-05
2.331590735593636e-05
3.127979186956509e-05
3.439643091951439e-05
3.73795262476051e-05
3.528305944655585e-05
3.12884804998248e-05
3.309529665784794e-05
3.41411401905134e-05
3.245463608436694e-05
2.8364870104269357e-05
2.024335026362678e-05
8.205511903724982e-06
-2.654299919413461e-06
-8.592316817157553e-06
-8.431715968981734e-06
-1.0007905302700237e-05
-3.607901021496218e-06
4.3618820200208575e-07
3.2168777579499874e-06
6.5958798813881e-06
7.357131607932388e-06
7.260442089318531e-06
5.8394606412548455e-06
4.606373067872482e-06
2.7532962576515274e-07
-5.111652853884152e-06
-7.399036462629738e-06
-3.561620928849152e-06
7.550073064521712e-06
1.7556034435983747e-05
3.052635327094322e-05
4.7787710400371e-05
6.87658485958309e-05
0.00010360874614434579
0.0001437147487877155
0.00017458065758546581
0.00018240360850541038
0.00015791285136401711
0.00010568765026164328
4.174944854185014e-05
-1.2345068626018474e-05
-4.6928493702580454e-05
-5.6012073514466465e-05
-4.5673791078115755e-05
-3.576077438083303e-05
-2.1569635691776057e-05
-1.0747482178885548e-05
-9.665985089668538e-06
-7.976394954312127e-06
-3.9493530721301795e-06
-1.7685451894067228e-06
-4.217793048155727e-08
5.071532996225869e-06
7.803032076481031e-06
2.614686536617228e-06
1.2389672292556497e-06
1.9060190652453457e-06
2.138201352863689e-06
6.03108776431327e-06
6.405805152098765e-06
6.380787112902908e-06
3.919681148545351e-06
1.818887085391907e-06
1.9657746861412306e-06
3.7823094771738397e-06
9.988175747821515e-06
1.6013460253816447e-05
1.6967714600468753e-05
1.2923820804644492e-05
8.646021456115704e-06
1.3575456137004949e-05
1.6420508472947404e-05
1.9383184508114937e-05
2.5454538217672962e-05
2.711020977130829e-05
2.9719215490331408e-05
3.8125309629322146e-05
4.090722018190718e-05
4.0269729311148694e-05
4.103259334442555e-05
4.5197176177680376e-05
4.830055843285663e-05
5.0631641329346166e-05
5.539597509596206e-05
5.262078968826245e-05
5.185205793623027e-05
5.725645451093442e-05
5.7020496910809015e-05
5.56319258748772e-05
5.0766631488841085e-05
4.1998070287263545e-05
4.2825616446862114e-05
4.8859683033697365e-05
5.304357148361305e-05
5.1362300609980593e-05
4.506835523443442e-05
3.2941251220108825e-05
2.3431891918335168e-05
1.91012076129482e-05
1.3048773098489619e-05
1.0000545103139302e-05
1.0178200341215415e-05
6.5369258663849905e-06
5.096268864690501e-06
2.976295604639745e-06
-7.754522357572569e-07
-8.569110150347115e-07
-2.50599907758442e-06
-6.408398348867195e-06
-7.651335863556596e-06
-7.266966690622212e-06
-7.895975841165637e-06
-5.73254544633528e-06
-3.979343432547466e-06
-3.7366389733506367e-06
-1.5963280475261854e-06
8.335422307936824e-07
4.4248781705391593e-07
-1.28745909933059e-07
-3.3439436037951964e-06
-3.975762638219749e-06
-4.4722254415319185e-06
-4.593293283505773e-06
-1.7517565993330209e-06
-1.9322136495247832e-06
-2.6670619490687386e-06
-3.7218833313090727e-06
-7.052193950585206e-06
-3.8500853634104715e-06
2.581896296760533e-07
1.7779756262825686e-06
5.506923116627149e-06
6.997940204200859e-06
5.601022849077708e-06
5.945680072727555e-06
6.251632385101402e-06
3.074783649026358e-06
2.05050105250848e-06
7.770004231133498e-07
2.3021380002319347e-07
-3.9776637095201295e-07
-1.053873120326898e-06
-3.204402332812606e-06
-1.2793482255801791e-06
5.739750349675887e-06
1.0214351050308323e-05
1.1147538089062436e-05
8.581356496506487e-06
3.7715853977715597e-06
-8.655331384943565e-07
-1.984821892619948e-06
-6.819301461291616e-07
-3.7311904179659905e-06
-1.8996925064129755e-06
-9.337823030364234e-07
-2.9030422865616856e-06
-2.4658731945237378e-06
-5.093749109619239e-06
-6.639390107920917e-06
-3.6930043734173523e-07
7.426482852679328e-06
6.736506293236744e-06
8.949224024945579e-06
7.1266188115259865e-06
6.1403295603668084e-06
1.2698497016572219e-05
1.68608117974145e-05
1.5166032198976609e-05
1.2444442063497263e-05
1.1290501333860448e-05
1.6364378211619623e-05
2.4094696868814935e-05
2.9040451522632793e-05
3.2184207498175965e-05
3.326341311549186e-05
3.4248706015205244e-05
3.4223129659949336e-05
2.9251305591060373e-05
2.559504969212867e-05
1.7449049209972145e-05
8.906834750632697e-06
8.262914434453705e-06
4.657896738535783e-06
2.332551275685546e-06
1.9029737359232968e-06
-9.746943305799505e-07
-3.709964971676527e-06
-6.2451827034237795e-06
-7.091811539794435e-06
-8.178124062396819e-06
-1.2205372740936582e-05
-1.3022711414123478e-05
-9.49359287005791e-06
-5.010192239751632e-06
1.6261717519228114e-06
6.564244245055306e-06
1.0768011406980804e-05
1.5265439856193552e-05
2.3137070797929482e-05
3.0240894943744934e-05
3.9854450619714044e-05
5.9921317983935296e-05
8.760630339565978e-05
0.00012979369682852848
0.0001685197462393262
0.000181120705747162
0.00016626527121843537
0.00011853106229864352
5.1523770025596605e-05
-2.413510514998052e-06
-3.974981405008293e-05
-5.717226838442002e-05
-5.753919617745851e-05
-4.969758515471767e-05
-3.740715328603983e-05
-2.421502813376719e-05
-7.851216423659935e-06
8.937562370192609e-07
8.152559075824684e-06
1.2214201092319854e-05
1.3337240375221882e-05
1.0534859939070884e-05
4.6006871343706734e-06
3.195118551957421e-06
1.454890593777236e-06
8.702359082235489e-07
3.852626150546712e-06
3.493083909233974e-06
3.137414182674547e-06
3.637982104010007e-06
3.681557586787676e-06
2.466595560690621e-06
1.4040816722626914e-06
5.172357077753986e-06
5.083286623630556e-06
6.442174708354287e-06
1.2620575375876797e-05
1.278742672639055e-05
1.5807652630428493e-05
2.167392233332066e-05
2.2297801592685573e-05
2.7404254069551826e-05
3.042142122922087e-05
2.6763666483020643e-05
2.1322411043911416e-05
2.4851858370311675e-05
2.91461821007033e-05
3.2792480851639993e-05
4.245431705385272e-05
4.535913728886953e-05
4.5603352532452845e-05
5.014554506033164e-05
5.357582460874255e-05
5.630159751035535e-05
5.474808824601496e-05
5.4689748139935546e-05
5.59778297883895e-05
5.580435788488103e-05
5.7702828826222685e-05
5.704186492039298e-05
5.654550352574006e-05
5.81420213165984e-05
5.8220138498654705e-05
5.812645758851431e-05
5.028613486501854e-05
3.780290273880382e-05
2.960473079838266e-05
2.5591248004275258e-05
2.597983416308125e-05
2.1307245560819865e-05
1.4410212884286011e-05
5.08225502926507e-06
-5.584715836448595e-06
-3.5403689935264993e-06
8.436585403615027e-07
3.383063358342042e-06
6.902548193465918e-06
3.948081939597614e-06
-1.8763192883852753e-06
-7.5146804192627314e-06
-7.2449918206984876e-06
-4.806093670595146e-06
-3.6502962075246614e-06
3.6095286759518785e-07
1.3775058960163733e-07
-8.987746014099685e-07
4.670473572332412e-07
-1.7606715800866368e-06
-2.3708173557679402e-07
8.491319931636099e-07
1.7501390630059177e-06
4.515810132943443e-06
4.943597900819441e-06
2.4472948325637844e-06
-2.124630782418535e-07
-2.2445648255597916e-06
-5.291958700581745e-06
-7.261173436745594e-06
-2.714028028094617e-06
1.3274309367261594e-06
5.487387056746229e-06
9.11791721591726e-06
2.3263289676833665e-06
-2.8683716664090753e-06
-3.008964768014266e-06
-1.372329393234395e-06
4.844418981519993e-06
1.2510509122876101e-05
1.2694369047494547e-05
4.5347253490035655e-06
-9.459586181037594e-07
-3.0396613510674797e-06
-5.495371055985743e-06
4.8875676839088555e-08
6.24798394710524e-06
5.827197583130328e-06
3.2318718012902536e-06
-1.1948327482969034e-06
-6.520622264361009e-08
1.4259406952987774e-06
1.6664906752339448e-06
2.5823196665442083e-06
-3.1836309517530026e-06
-8.444029731435876e-06
-7.158311404964479e-06
-5.830974373566278e-06
-3.843826675620221e-06
-1.6852166027092608e-06
1.212584038512432e-06
4.180845053269877e-06
7.091666361702664e-06
8.89102341261605e-06
9.183179713545542e-06
8.950565188570181e-06
1.0073103339891532e-05
8.47406261073047e-06
1.2330766594459419e-05
1.9239786070102127e-05
2.4422815386060392e-05
3.144744198380067e-05
3.3502614314784296e-05
3.361751078045927e-05
3.487205481178535e-05
3.7618317378473876e-05
3.5565395364756114e-05
2.9124706202310335e-05
2.207559884936927e-05
1.7057426475730608e-05
1.1245489531575004e-05
7.298322884707886e-06
1.2795194379577879e-06
-6.8427018504735315e-06
-1.3357342822928331e-05
-9.935272714756138e-06
-5.2777920700464165e-06
7.702280981902732e-07
7.376137091341661e-06
7.139610715967137e-06
5.123256983097235e-06
1.4486483905784553e-06
-3.134643066005083e-06
-1.049181264534127e-06
5.323909022081352e-06
1.0957010886158969e-05
1.780732122824702e-05
2.5721468091433053e-05
3.363015946433734e-05
4.373983392724767e-05
6.412469917904673e-05
9.052099528616964e-05
0.00012360908067421406
0.00015422125170516665
0.00015940245555157162
0.00013603948536911048
8.289740412692481e-05
1.5818472547834972e-05
-3.321848942050565e-05
-6.480576359990664e-05
-7.270044909546414e-05
-6.245612973998504e-05
-4.659463536427211e-05
-2.7841241376336257e-05
-1.3897692610953527e-05
-4.131127866457973e-06
1.6055721516750054e-06
5.808266905660275e-06
8.533784921382903e-06
1.015750240185298e-05
1.0783094012367656e-05
7.775524977660098e-06
5.249563628240139e-06
7.697159958297561e-06
5.0652389518290875e-06
1.2933730886288686e-06
4.345652428128233e-06
6.9658417487517e-06
8.145014021465613e-06
9.268379926652415e-06
7.084665526235767e-06
4.7256461357392254e-06
7.97687630438304e-06
1.4060983062336163e-05
1.389117130656814e-05
1.705797831164091e-05
1.527020469893614e-05
1.7400368847120262e-05
2.308676164375356e-05
2.8360437909213942e-05
3.179467637437483e-05
2.99623429782514e-05
3.320145799534657e-05
3.413485831060825e-05
3.59808061602962e-05
4.331394302425906e-05
4.724175903447758e-05
4.773205637320643e-05
5.1001565793740156e-05
4.790321258951735e-05
4.832370586882462e-05
5.67357425325099e-05
6.717989401749946e-05
7.42188434514901e-05
7.94001974782077e-05
7.856056777200138e-05
7.113834669780772e-05
6.783033063584298e-05
6.552691365868668e-05
6.305671854534012e-05
6.612651475279563e-05
6.447439284329448e-05
6.216254655555531e-05
5.8075153788195166e-05
4.929195517888729e-05
4.240443035996577e-05
3.710761836828169e-05
3.150597240164643e-05
2.389430324001296e-05
1.574729014919285e-05
1.0802878250615322e-05
6.41215490304603e-06
5.369717769099225e-06
4.912904273624008e-06
-7.0325563683582e-07
-2.2715122440786217e-06
-4.563032121041033e-06
-4.038810970996565e-06
-2.0535628664219985e-07
-6.475860345744877e-07
-7.240997774715652e-07
-7.752756800982752e-07
-3.6501747899819748e-06
-5.321225216903258e-06
-8.128976901389251e-06
-6.588214660041558e-06
-3.249645260439138e-06
4.3379577618907206e-07
3.229582262065378e-06
6.660026201643632e-07
-3.5431071410130244e-06
-6.7154689986637095e-06
-5.2257692004786804e-06
-1.2604261883097934e-06
-1.9492540559440386e-07
2.6131841650567367e-06
3.4812835565389832e-06
2.5871502202789998e-06
4.412055773173051e-06
1.4787522104597883e-06
-8.469711474390351e-07
-1.7788137256502523e-06
9.135696927842218e-07
5.898531071579782e-06
5.5651635193498805e-06
4.748024934997375e-06
4.5719525587628596e-07
-4.067362510795647e-06
-1.4633197906732676e-06
1.0360249689256307e-06
6.65798597765388e-06
7.809491648913536e-06
8.082491604000097e-06
6.785333994230314e-06
5.987752729197382e-07
-2.157898734367336e-06
-2.9644772894243943e-06
-2.610672936498304e-06
6.877993428133777e-07
2.895657416956965e-06
2.6861202968575526e-06
7.452242698491318e-07
2.4234245756815653e-06
6.381361231433402e-06
4.9304620688417344e-06
4.802825401384325e-06
4.014222895420971e-06
7.296827561731334e-06
1.5258813732543786e-05
2.1448941424750956e-05
2.5248756628570845e-05
2.3827986979085836e-05
2.473028257554688e-05
2.8688462975878792e-05
3.303305095414544e-05
3.5382384908189124e-05
3.280070757227804e-05
3.2653428547746444e-05
3.0948261041885416e-05
2.9890778478147695e-05
2.8165973731120175e-05
2.425517607207439e-05
1.9011033259630494e-05
1.4158600833980017e-05
5.518478246813174e-06
8.068798251770204e-07
-9.62728108788724e-07
-2.160321287192346e-06
-1.4848884575258126e-06
-3.828235662695079e-06
-1.6329123582181637e-06
2.779905685201811e-06
5.188092472963035e-06
7.812602689227788e-06
2.8123755555498064e-06
-1.0091965805258951e-06
6.803650876463507e-06
1.7987165279009787e-05
2.9189161864451307e-05
3.79279642857e-05
4.193907057015167e-05
4.560744480386347e-05
5.958197380095953e-05
8.71081338118529e-05
0.00011804473683696415
0.0001428050850336149
0.00014374791862792335
0.00011068029255056899
6.094935747569252e-05
1.0610938375066326e-05
-3.3821914712461876e-05
-5.8629722957448394e-05
-6.528601090849406e-05
-6.237098000383412e-05
-4.778863478804851e-05
-2.6808179768522677e-05
-1.2263005260138016e-05
-4.658519401345984e-07
4.526282509687007e-06
4.987968964087486e-06
4.78648803436954e-06
5.527642088054563e-06
6.507964144475409e-06
5.073525471743778e-06
5.529480858967872e-06
8.118468372231291e-06
7.909152031970734e-06
1.0515397775634483e-05
1.313750715326023e-05
1.3134376899870404e-05
1.2052933016093448e-05
9.67142386798514e-06
9.920394290929835e-06
1.0672888606677589e-05
1.1395703154448711e-05
1.5472693689844164e-05
1.558707162985229e-05
1.2150070688221604e-05
1.3415228181656857e-05
1.884477126168349e-05
2.6376237315162143e-05
3.261500989992783e-05
3.5343000831744575e-05
3.746013533145742e-05
3.571175739125465e-05
3.5279083022032864e-05
3.739588544249273e-05
3.9413812714883534e-05
4.233607103287795e-05
4.337919870067708e-05
5.157288921964209e-05
5.326034579411498e-05
5.6814007507455244e-05
6.604777343000023e-05
6.966753505821544e-05
7.459107121121633e-05
7.656936713829054e-05
7.60766087068987e-05
7.55821331495099e-05
7.32871627633358e-05
7.284084210823494e-05
7.11897168912401e-05
6.651472392604774e-05
6.521303430417902e-05
6.283095774506364e-05
6.108257173309539e-05
5.613230700873828e-05
4.7737787099322304e-05
3.58653960574884e-05
2.4292638840961445e-05
2.009158151849988e-05
1.6342578533112828e-05
9.930978649208555e-06
6.872987910355732e-06
-3.137106773465348e-06
-7.709033411629207e-06
-3.059052460230305e-06
-3.2688928968127584e-06
3.249931523896521e-08
4.026606006846123e-06
2.5093287376876106e-06
4.05430205319135e-06
5.145654881744122e-06
2.5462140911258757e-06
2.902319238273776e-07
-1.8695209291763604e-06
-2.3063863636707538e-06
-3.502339836813917e-06
-8.959591923485277e-06
-1.6801462948023982e-05
-1.2577519100887002e-05
-4.879348466602096e-06
-2.0855679849773878e-07
9.875206956166949e-06
6.1411001297528856e-06
-2.5807053134485614e-06
4.140080136494362e-07
4.009501708424068e-06
9.926791221914755e-06
1.028343149300781e-05
7.953346653266635e-06
4.055977001371502e-06
-3.3064142144212383e-06
-4.665743972509517e-06
5.100772568766843e-07
4.720015226666874e-06
8.689436299391673e-06
1.0162506441702135e-05
5.642888936563395e-06
-4.786490990227321e-07
2.0852451143582584e-07
-2.518831593079085e-06
-2.2701209445585846e-06
2.328726736777753e-06
4.1655232507764595e-07
3.6117633044341346e-06
8.78579749041819e-06
8.08093216164707e-06
4.126680892113654e-06
1.1437833791205776e-06
-1.6441090338048525e-06
-5.332906653165992e-06
-6.783153366995975e-06
-2.9133932457625633e-06
6.539570449604071e-07
3.5820307857648004e-06
5.323318532646226e-06
5.044708018431265e-06
5.131098873789597e-06
6.3716281601955416e-06
8.303675144816225e-06
1.1449374596850248e-05
1.7033805079336162e-05
2.3794190951775818e-05
3.107068027929927e-05
3.668110412036185e-05
3.947034872453514e-05
3.7239902326291485e-05
3.5466069789436006e-05
3.565766633073508e-05
3.5734327525460685e-05
3.4997460147678794e-05
3.313861122933304e-05
2.443214100367186e-05
1.0951631224997982e-05
3.0648512847619713e-06
-5.513586529559689e-07
-1.5793598322488833e-06
8.085861509243841e-07
-1.652191485845833e-07
-1.677683940215502e-06
-2.701333187360433e-06
-1.4512273764921702e-06
9.629482065065531e-07
-1.7369027318636654e-06
-2.483153025423235e-06
-3.081559611928242e-06
-4.728892236016691e-06
6.240508128030342e-07
1.0575329383755161e-05
2.146219560472673e-05
3.112266097105021e-05
3.8496794900311215e-05
4.99599555041641e-05
6.760339942957216e-05
9.583013809333352e-05
0.00013191118796385126
0.00015854179207508423
0.00016004463225272048
0.00013585634314949857
8.96730153954195e-05
2.880768693103164e-05
-2.2183874307302176e-05
-5.48111423768205e-05
-6.742381469848624e-05
-5.985462905755412e-05
-4.267508768407424e-05
-2.623142995616945e-05
-1.445954808332317e-05
-4.725165354102501e-06
1.0919417263721698e-06
4.187722538517846e-06
9.036704227582959e-06
1.1130061011499492e-05
6.292726652645797e-06
5.58235740300006e-06
2.0525970967355534e-06
-1.2553870192277827e-06
1.307597244704084e-06
1.8442684677211219e-06
5.661107252308284e-06
9.657368309490266e-06
9.990278613258852e-06
1.5396455978589074e-05
1.6064647184066416e-05
1.3116620721120853e-05
1.5713022548879962e-05
1.6134204997797497e-05
1.5381878711195895e-05
1.3771497492598428e-05
1.2910810823996144e-05
1.2401828485053557e-05
1.776361352767708e-05
2.550923443322972e-05
2.8528426014418073e-05
2.710497460611805e-05
2.41307410533409e-05
2.535380565404921e-05
3.519343886182469e-05
4.51078144578787e-05
5.212625239892077e-05
5.1287387577758636e-05
4.685921612690436e-05
4.7355573315144284e-05
4.847374907512858e-05
5.750626291955996e-05
6.526990046040737e-05
6.781963270441338e-05
6.913751371939725e-05
6.743067922343471e-05
6.28338608521517e-05
6.26565564516568e-05
6.56591982988175e-05
6.772837241442176e-05
6.709017986850085e-05
6.520304782497988e-05
5.551545166326832e-05
4.490534979595395e-05
3.719763583376334e-05
3.0415197670663474e-05
2.8522524985419295e-05
2.9363331350396038e-05
2.811741717323457e-05
2.7041654220738565e-05
1.9683147002069745e-05
1.111335075165698e-05
7.901044909885968e-06
5.13789234446449e-06
2.174521227971127e-06
-2.3811838900655857e-06
-4.653814130506362e-06
-7.771013201818278e-06
-5.2355650268509635e-06
-8.140733598338556e-07
-2.3802471105227596e-06
-2.8767677804353298e-06
-2.738082116593432e-06
-1.9809448303931276e-06
2.2129613626020728e-06
2.449729777254106e-06
3.7225286177999806e-06
1.491116563556716e-08
-3.0862539688314428e-06
-2.7279362484478042e-06
-4.2662137502702535e-06
-3.5253624446340837e-06
-3.481903149804566e-06
-3.7360435953814886e-06
-1.9268138657935197e-06
-1.1540528248588089e-06
3.073757852689596e-07
-1.4088749367147102e-06
8.461094012091053e-07
7.436778901137586e-06
9.097830002247065e-06
1.1173077382409247e-05
8.644698141324625e-06
5.087102977086033e-06
3.430382207625371e-06
2.4972194978545303e-06
2.96294763302285e-06
1.6181957107619382e-06
-3.0301016522571445e-06
-7.09847017787979e-06
-7.329085974561167e-06
-2.4038270112214377e-06
1.4292594414655468e-06
7.216525546027697e-06
9.883904795060516e-06
6.4008339677457116e-06
5.070677389085176e-06
2.7909882192034274e-06
-1.4272817452365416e-06
-7.305056101358787e-06
-7.616776883878629e-06
-1.6078740827651927e-07
3.1432493869942846e-06
7.737567671028955e-06
9.342271368950605e-06
7.152492344175698e-06
8.629917260805087e-06
1.0394542869107681e-05
1.933618034399842e-05
3.183064438871952e-05
3.5741247415899124e-05
3.4350847727182554e-05
3.822433586719853e-05
3.867809050461801e-05
3.351343957547215e-05
2.927701518729009e-05
2.0728024992422434e-05
1.1454898981355655e-05
5.323815798874421e-06
1.8186624402005691e-06
1.5459377209481318e-06
3.4681821716731065e-06
5.020370281272335e-06
3.133921040898713e-06
-4.3612260469672037e-07
-4.569602424453478e-06
-7.536674957009382e-06
-5.505330136656994e-06
-5.548381523112766e-07
1.378117758576991e-06
2.1949194888293277e-06
1.2056782452418702e-06
1.1781651210185373e-07
2.4510015919076977e-06
6.9067842787262634e-06
1.3006304129703494e-05
2.122465809861751e-05
3.784810587603715e-05
5.933341174113593e-05
9.098986538447207e-05
0.00013195859037296032
0.0001633880464169124
0.0001768188689084127
0.00016515682534645748
0.0001248893763658998
6.431407132367895e-05
9.520065077595063e-06
-3.148882456116553e-05
-5.777142087026732e-05
-5.774753731202509e-05
-4.679798871620733e-05
-3.499029992326541e-05
-1.94724967741422e-05
-8.136824021676148e-06
-3.74016110527009e-06
-2.705454221541004e-06
5.180609150556847e-07
2.495743387953553e-06
5.721147999793175e-07
4.143613409723912e-06
8.858068440531497e-06
6.864346232759999e-06
9.834897014115995e-06
1.0464886599947931e-05
1.0316200246052176e-05
1.1094273077105754e-05
1.1213386869712849e-05
1.112848190132354e-05
8.560229389331653e-06
6.889153269185044e-06
4.1029567228179076e-06
3.034350584130152e-06
4.864282686867227e-06
6.074039561099198e-06
1.2585795957420487e-05
2.1779599592264276e-05
2.555414971538994e-05
2.744616426753055e-05
2.90494906494132e-05
2.7979627020613407e-05
2.5391498525095813e-05
2.9524125466195983e-05
3.285716888967727e-05
3.5049298617195745e-05
4.296360202715732e-05
5.170069550786138e-05
5.202372244639264e-05
5.343831981008407e-05
5.420640445663594e-05
5.2563645681402704e-05
5.678810350673302e-05
6.107944375344232e-05
6.401536313660472e-05
6.146940438611637e-05
5.6717245797699434e-05
5.485889425926871e-05
5.0880452818091726e-05
5.111638995458634e-05
5.277577031392866e-05
5.005039918160037e-05
5.0277644845664327e-05
4.873665034210717e-05
4.620130516741483e-05
4.0865336472961644e-05
3.269999706390081e-05
2.4771936864453892e-05
1.855751145285467e-05
1.3909600170336489e-05
1.0288621524523478e-05
9.40665256621287e-06
6.439732260332676e-06
6.111966058597318e-06
3.537253178365063e-06
-3.710018972924445e-06
-7.343164497797261e-06
-1.2482785905376659e-05
-1.0577945204204298e-05
-4.2730549694169895e-06
1.599611209712748e-06
7.424365890074114e-06
3.7721040371252457e-06
7.047416374916793e-07
-1.0925447213594452e-06
-5.756682298851956e-06
-2.801667960738996e-06
-1.6436251826235093e-07
-1.3556183375840192e-06
-1.780390221028938e-06
-4.440595148480497e-06
-6.057995619812573e-06
-4.8577211373412865e-06
-1.7782303984859027e-06
5.993915692670271e-07
1.0557914720266126e-06
4.303268156036211e-06
5.358785301723401e-06
6.32372962172667e-06
9.40437917051895e-06
7.696022976233508e-06
9.225361282005906e-06
7.4324401566627785e-06
5.3310748171497835e-06
2.680924353626324e-06
-1.467402626076364e-06
-2.62858702626545e-06
-3.1651517247155425e-06
-1.2714316426354344e-06
6.797023388571688e-07
-1.2043236665704171e-06
-2.0728242589029833e-06
-3.4900451737485128e-06
-4.359155695965455e-06
-2.4265458478112123e-06
1.1379925126675516e-06
8.452880138065666e-07
2.8210507707626675e-06
4.220199571136618e-06
1.6929828916545375e-06
2.6644687523003086e-06
4.112082592655497e-06
3.7001807413616916e-06
5.51203163468017e-06
6.309340392363083e-06
8.160871971085726e-06
1.6778503095338237e-05
2.3635270508748363e-05
3.166746057559067e-05
3.450598524068482e-05
3.455811020103283e-05
3.309851456378965e-05
2.7982000347037683e-05
2.4836947318362945e-05
2.231186056178558e-05
1.975144118659955e-05
2.578259932306537e-05
2.4748440182520426e-05
1.7123243992500647e-05
1.3054538158030482e-05
3.411325110391772e-06
-3.3512992558826227e-06
-9.707498520583613e-07
-4.810265181731666e-07
-8.115267746688914e-07
1.9922541696359986e-06
3.902967591784545e-06
4.358783257885079e-06
1.4265242498368025e-06
-2.3845229861763073e-06
-8.7000303210516e-06
-9.79460116923292e-06
-5.4925284302953514e-06
2.9566346029241686e-06
1.8831873035196622e-05
2.7395218126002874e-05
3.698597652146418e-05
4.9344398917128274e-05
6.146005046048231e-05
8.934204879551544e-05
0.00012666480483858322
0.00016400464949128946
0.00018410662812584633
0.0001721810539265789
0.00013060963431144046
6.433325211219199e-05
1.7584684428584296e-06
-4.117883781873388e-05
-6.261374664973118e-05
-6.311813228876417e-05
-4.8647348990016326e-05
-3.21707004786731e-05
-1.5967944023032032e-05
-1.8557955172582297e-06
5.833173872815678e-06
5.359798819881689e-06
5.432783723335888e-06
3.4574106848594965e-06
4.389947889649193e-07
4.418465323396958e-06
7.0009949695304385e-06
6.549818749590486e-06
7.315770631066698e-06
3.3278581668128027e-06
2.1740611373388674e-06
3.8069856600486673e-07
-1.9887659163941862e-07
2.7249111553828698e-06
2.6390287075628294e-06
2.6589956405587145e-06
4.976979653292801e-06
9.675207479631354e-06
1.4454857137025101e-05
2.1353618649300188e-05
2.519750762530748e-05
2.46962690653163e-05
2.5257759261876345e-05
2.3021768811304355e-05
2.1298636738720234e-05
1.980628462661116e-05
1.6896121337595105e-05
2.1448499751386407e-05
2.5554524199833395e-05
3.134355131351185e-05
3.8865977899149584e-05
4.2645219650694344e-05
4.194787152300705e-05
4.2297389427403687e-05
4.654143697280233e-05
5.2337770739541156e-05
5.6908166470748256e-05
6.006118030654761e-05
5.9865371895284625e-05
5.8797114320441324e-05
5.6728871413724846e-05
5.5711411960146506e-05
5.1911946115978935e-05
4.515329453624872e-05
4.103942580968578e-05
4.1829513861557643e-05
4.33610886148017e-05
4.456959356957668e-05
4.0201942852036154e-05
2.9934915119156358e-05
2.0948557789779443e-05
1.1396870149837923e-05
8.202272510970943e-06
1.2134807661823288e-05
1.5937790067255264e-05
1.5967344779710402e-05
1.3323226312422776e-05
2.7661222929964424e-06
-7.653950433450518e-06
-1.3140747910256323e-05
-1.3269759733702813e-05
-4.613433020494995e-06
5.584702194028068e-06
7.94952370597457e-06
7.054456659716379e-06
4.274891125533031e-06
-4.196299414616078e-07
1.8349479660173529e-06
2.390917074990284e-06
-2.0779378928637016e-06
-6.216443352968781e-06
-1.0776458452710358e-05
-8.666379812893865e-06
-7.674137805224746e-07
1.990137320717622e-06
1.4414906672755023e-06
-3.3529472602822352e-06
-7.319190103771689e-06
-1.005206388526858e-05
-9.316350428889564e-06
-2.8161363161416375e-06
2.5195224679919193e-06
4.302237016418076e-06
4.8937599785858765e-06
4.2689384827099275e-06
6.88406089466298e-07
4.1863825117616216e-07
2.1643460286213667e-06
2.9160084977775114e-06
5.281798394207726e-06
4.839350367547013e-06
3.3960775454033865e-06
2.4090751367111807e-06
-1.5912069102341775e-06
-1.4964336969569558e-06
-2.127155767084332e-06
-2.8895809691675822e-06
-1.0337917046854272e-06
-9.167365533357952e-09
8.029154514588299e-07
3.963656581618125e-06
9.058695923158666e-06
8.717257969692582e-06
5.788650469185086e-06
3.899527314388251e-06
5.134679668117315e-07
4.5041203975415556e-06
1.4543811971634568e-05
2.1014600633861846e-05
2.172859615257039e-05
2.1701223772652156e-05
1.7421251186533482e-05
1.785244751317805e-05
2.6592724680085666e-05
3.448343602485693e-05
3.7810340472788084e-05
3.862907578877639e-05
3.579864971925417e-05
2.8947030273229757e-05
2.392061639966414e-05
2.063287172404671e-05
1.4755797906218504e-05
9.254221822629916e-06
8.222300493798684e-06
6.988892778281297e-06
5.807691536574566e-06
1.443770770492847e-06
5.067552137916209e-07
1.21629454952199e-07
-2.2786590534451534e-06
2.7228501267018146e-06
4.969249062014569e-06
3.459064487287833e-06
3.506943812681129e-06
-2.539195065764943e-06
-6.768169555471104e-06
-4.188948764749512e-06
8.147118251145002e-07
1.2800948297808645e-05
2.212304934801068e-05
3.2227164638243266e-05
4.7883848537821905e-05
7.1361576488016e-05
0.00010453097991103277
0.00014558850659796008
0.00017694802670575882
0.00018371220880908368
0.00016829605942803028
0.00012541174658053933
6.386275219938398e-05
8.915170838008635e-06
-3.560827542514744e-05
-5.747983925630251e-05
-5.877764340311842e-05
-4.693590972237871e-05
-2.701996174891974e-05
-9.065542826647288e-06
9.639234122005291e-08
-1.4785695157115697e-06
-1.1041380503229448e-06
3.2428426948172273e-06
4.828492023989384e-06
1.3741988595938892e-05
1.9545506688700698e-05
2.1582862700597616e-05
2.1791886638311553e-05
1.9290835211904778e-05
1.4447405192186125e-05
8.280080464828643e-06
8.749638254812453e-06
1.3600641182165418e-05
1.647734245580068e-05
1.677043394465727e-05
1.5782806372044433e-05
1.4517407180392183e-05
1.8958187638418167e-05
2.384478636940912e-05
2.7949476361754932e-05
2.74078760185148e-05
2.1980767996865325e-05
2.072539746222901e-05
2.407880458576983e-05
3.150709721921885e-05
3.939546252240689e-05
4.507048902269162e-05
4.9126149974654254e-05
5.2866695227749005e-05
5.706973490759992e-05
5.8778054722097295e-05
6.095604851452663e-05
5.960109069746977e-05
5.8924986888087005e-05
6.258418795823673e-05
6.143796736068907e-05
6.000654173021758e-05
6.339093033602694e-05
6.411022673091793e-05
6.859317670659948e-05
7.390145765384659e-05
7.294801685020502e-05
7.347218956965662e-05
7.074655843553046e-05
6.983482228406501e-05
6.75391149798088e-05
6.115944597695488e-05
5.734820285852038e-05
5.0409705067977484e-05
4.522618178270932e-05
4.172242381628166e-05
3.5901735373045085e-05
3.342629213420878e-05
2.6883540954258933e-05
2.1110302668603254e-05
1.4602361147808551e-05
7.970388310241106e-06
3.65710286587273e-06
-3.9564622511534253e-07
-2.7524658889888087e-06
-1.533832801214885e-06
2.6927843919111183e-06
7.016551649030589e-06
9.035068160301307e-06
7.1294133476840216e-06
1.977755573534523e-06
4.804809350389405e-07
5.216449153522262e-06
3.827458044725063e-06
2.19094249587215e-06
-9.499561883785645e-07
-6.847123245279363e-06
-5.2070399760850705e-06
-1.6643060689602862e-06
5.65370555705158e-07
1.266556182599743e-06
-6.405583690138883e-07
2.009949525927368e-06
2.2194441271494725e-06
7.052600494716899e-07
2.8276441526031704e-06
1.9222146647734917e-06
2.6693513746067765e-06
5.700978704226145e-06
8.329466368195426e-06
9.746129308041418e-06
6.54239272535051e-06
2.010122329920705e-06
5.905636726311059e-07
-6.447339728765655e-08
2.2365059066942194e-06
3.5693150266524754e-06
3.3801012477852055e-06
-1.6896526631171582e-06
-4.035534061586077e-06
-1.020634613269067e-06
2.6140606905755703e-06
5.004049171475344e-06
6.546996246470371e-06
5.252016194390308e-06
4.705158630713413e-06
4.687184855356463e-06
5.021614128963847e-06
5.195210974306974e-06
7.673119284845598e-06
7.31652301055874e-06
1.0029724762716796e-05
1.4066723338146403e-05
1.6341338096026448e-05
2.203952612944704e-05
2.7851628715325205e-05
3.374076868567499e-05
3.822329222202825e-05
3.8762909525758005e-05
3.977474978000828e-05
3.808774715707841e-05
3.0274513278527593e-05
2.240501066808065e-05
1.930031066876836e-05
1.9459093437035335e-05
1.928196729750198e-05
2.1805384903927916e-05
1.9382903133191576e-05
1.1420098189773853e-05
7.90597573541163e-06
4.303643322600692e-06
-1.5366649677162059e-06
-6.2600853425465175e-06
-1.045814940425771e-05
-8.338761290360708e-06
-4.777963908964011e-06
-1.8409983795208973e-06
6.496736659755697e-07
-3.2617617762298323e-07
8.369104307348607e-07
4.273588388059579e-06
7.595325769216288e-06
1.669735581799614e-05
2.3764704224049638e-05
3.0235607255235664e-05
4.4832172761744005e-05
6.210413675944437e-05
9.134473509675445e-05
0.0001318322704264574
0.00016656576644891175
0.0001763406125974143
0.00015401879022647336
0.00010341930396862153
4.092234780728177e-05
-1.0318348586224602e-05
-4.0321919072994206e-05
-5.087594627184444e-05
-4.817618071228935e-05
-4.31306586961e-05
-3.340502371429466e-05
-2.2973228055889194e-05
-1.6611245087005955e-05
-7.218704581646307e-06
2.7057683382736286e-06
1.1285027198937314e-05
1.7445461025999975e-05
2.146160682059417e-05
2.2504310322801757e-05
1.6905629422581114e-05
1.2198948638797447e-05
8.50161086418666e-06
3.1364903634312213e-06
1.1561877499843831e-06
3.169779347445001e-06
7.116283200048201e-06
7.128886295504344e-06
7.630219670318183e-06
6.929155915713636e-06
5.371087809180608e-06
6.480660090346646e-06
1.422781519977434e-05
2.1285246020852355e-05
2.683304626316385e-05
2.9179607508922345e-05
2.573908375325118e-05
2.3603055865351052e-05
2.4936638055805815e-05
3.121851102605433e-05
3.412058947560581e-05
3.754074236894667e-05
4.2571847984618216e-05
4.351681593561807e-05
4.626917984751344e-05
4.7956868343135284e-05
4.882293035279872e-05
4.9966575261350954e-05
5.3217036679598095e-05
5.34943097818541e-05
5.111158020554285e-05
5.6023349543465883e-05
5.9812924405378e-05
6.745461155333032e-05
7.441547370490298e-05
7.090534131748427e-05
6.709865272114257e-05
6.181224432566523e-05
5.316085923823266e-05
4.715864201898512e-05
4.3089512587357603e-05
3.79577813873766e-05
3.248137977607257e-05
2.9712479999943753e-05
2.3800810936336347e-05
1.4700987435389834e-05
1.277724049941753e-05
1.0795776461236528e-05
6.234864486032166e-06
4.3286058826197404e-06
5.855600875293021e-07
3.3473711482656654e-06
7.840579201001674e-06
7.850476094972691e-06
1.0403646228951402e-05
3.1381614462588914e-06
-2.466880118845438e-06
-5.817762598780973e-06
-1.0414530947855383e-05
-1.1781034800151247e-05
-1.405776083629462e-05
-1.591402690337418e-05
-1.0476917395862984e-05
-5.825139623993891e-06
-8.731701655051438e-07
1.8923939251180855e-06
5.358526777854422e-08
-6.677878445771057e-07
-1.2054399576300057e-06
2.409643457212951e-06
2.6677538471631124e-06
1.0989127758875838e-06
1.3692908851226093e-06
-7.71127815824002e-07
-1.3264792642075918e-06
-2.5397646368219284e-06
-1.8598823317006463e-06
-1.2786445040546823e-06
-3.063729536734172e-07
4.09562858294521e-06
3.47170180248213e-06
4.7685159643151565e-06
6.507490638796298e-06
2.856647483895358e-06
1.6252529349003453e-06
9.528321243124083e-09
-1.396462266711751e-06
-4.371568138594739e-06
-6.06244964274083e-06
-6.982720037740364e-06
-8.668776217746199e-06
-4.335306925895566e-06
-1.288201133320399e-06
1.2492080259107752e-06
4.616928322320746e-06
5.81446352043713e-06
6.589617896679556e-06
6.063122100385954e-06
4.043720991830924e-06
4.451578206499107e-06
6.993015290390758e-06
1.4574914871445799e-05
2.45679115096209e-05
2.9718830433012045e-05
3.248185885240673e-05
3.307752751879889e-05
2.939623345810105e-05
2.8966833269805647e-05
2.9220688020359376e-05
2.824088835495786e-05
2.9492560429389414e-05
3.0507080396091624e-05
3.060268056742643e-05
2.6446393349033315e-05
2.1466603016051522e-05
9.255823897547089e-06
-2.1837728354512365e-06
-4.56185568964429e-06
-6.366714046635025e-06
-1.8274133708473528e-06
3.127573563688202e-06
2.7606416779235587e-06
2.777210852400458e-06
-4.6524007757398067e-07
-1.2214546813993366e-06
-1.320242404290184e-06
-2.5432191250729375e-06
-4.486209718379541e-06
-3.936846496799262e-06
-1.308573246205924e-06
1.968998276424827e-06
1.0088327030643995e-05
1.7021947655848635e-05
2.582751790214388e-05
3.9906718711790745e-05
6.085397762944922e-05
9.144157297669153e-05
0.00011953467787861882
0.0001462019016571503
0.00016079177646588505
0.00014415716532312217
0.00011301094639293296
6.015042288254335e-05
7.592701649627998e-07
-4.2404218675073935e-05
-6.42198854166054e-05
-6.266814500577311e-05
-4.818982438337116e-05
-3.149145663883246e-05
-1.746426642057486e-05
-1.0000485076488985e-05
-1.171179860648408e-06
8.376327173209575e-06
1.2508258578236564e-05
1.6092852433757798e-05
1.3754903420704068e-05
1.0802505471474433e-05
8.67880169153068e-06
9.169770919470466e-06
1.2926859881190467e-05
1.4622650951423566e-05
1.9807931039395044e-05
1.695017306246882e-05
1.1477686371108575e-05
1.1654751347123238e-05
5.033678917243378e-06
6.226751679605513e-06
8.760499895288376e-06
1.023031757085846e-05
1.9390460806789633e-05
3.0460137281806965e-05
4.080580447407556e-05
5.139531197073666e-05
5.415732505298365e-05
5.460466138629272e-05
4.914826888580137e-05
3.962006496749382e-05
3.406605492273229e-05
2.421843669253576e-05
1.81531753469244e-05
1.8636106460689916e-05
1.2035119993925036e-05
8.364185418940906e-06
7.139121976251772e-06
4.221262429382477e-06
5.019257969252067e-06
3.89598460515117e-06
3.139814680253039e-06
-1.7034116126524168e-06
-3.815977493104583e-06
-3.0550946803487022e-06
-2.929365905401937e-06
-3.692786890496791e-06
-7.665807970624883e-07
2.4325338472408475e-06
1.2544743412945536e-06
3.1153924737736816e-06
2.5844708488875767e-06
-3.6525696032185806e-06
-2.6166383122472325e-06
-3.641258899733657e-06
-4.94081314172945e-06
-1.6629260244371835e-06
-8.081509577095858e-07
6.205004865478259e-07
2.7519093919181614e-06
5.151796699465194e-06
8.721464041627769e-06
9.040614486366394e-06
1.0749268312792992e-05
1.027380619689211e-05
7.387009304693493e-06
7.1675051458441885e-06
7.00439693446242e-06
8.129827051561733e-06
6.3457221131102415e-06
2.654014338077104e-06
-2.6090208393725334e-06
-4.0928125599748455e-06
-5.0122326911150594e-06
-2.8878982902824646e-06
1.8790300373439095e-06
3.6562278182827868e-06
7.188704103100463e-06
1.4058701708563603e-05
1.2282713555578084e-05
8.351008091267431e-06
9.969073744287016e-08
-6.808150260440016e-06
-3.467611804808257e-06
4.457637601262832e-06
1.4449968830376747e-05
2.1835960069438443e-05
2.3442386009264737e-05
2.6953747010338702e-05
3.04520560803212e-05
3.194771852577105e-05
3.6637280572904274e-05
3.6220520769347786e-05
3.6462289131122816e-05
3.781597831675754e-05
3.788122342029965e-05
3.4268449553565006e-05
2.8353149559734447e-05
1.990037173982273e-05
1.0145749229195644e-05
2.764400733212824e-06
1.2869656984548783e-07
-2.9931717335784924e-06
-4.310470558266388e-07
9.550325330565101e-07
9.345960734208347e-07
-7.500552783312742e-07
9.362967148263124e-07
8.87305918695347e-06
1.1648310533018957e-05
1.1404065730857837e-05
2.9145190865165205e-06
-6.045934355825011e-06
-4.4506093672680436e-06
4.558544333121972e-06
1.9215280758544395e-05
2.9129105882930162e-05
3.241147965127311e-05
4.106137441794999e-05
5.534148476726841e-05
7.965133897869237e-05
0.000109793576825723
0.00013384748126554769
0.00013712903955820366
0.00011582516060570924
7.742167599644745e-05
2.6513483817325323e-05
-2.2243943931243848e-05
-5.713184918931802e-05
-7.701262984483037e-05
-7.403721997434332e-05
-5.7389277685615525e-05
-3.468966576747334e-05
-1.178595709916408e-05
4.844225259148516e-06
1.3590820913123025e-05
1.7113614831032464e-05
1.3572333500633249e-05
5.926198582528741e-06
1.1466372598079033e-06
3.2881620199987083e-06
1.0301519296262995e-05
1.6644784977870586e-05
1.8729315911514277e-05
1.4037152595847147e-05
6.047780175322259e-06
2.033868440776132e-06
5.792137358184846e-06
1.2569271234497137e-05
1.83561076028127e-05
1.8497381688575842e-05
1.5166681578193675e-05
1.011264862427197e-05
8.794798191047448e-06
9.56755866354797e-06
1.3777440926787676e-05
1.9380717048989027e-05
2.2608559334003075e-05
2.667308126547141e-05
2.7815143653242558e-05
2.804049495352956e-05
3.168483283388923e-05
3.555743444394466e-05
3.941133309126599e-05
4.190298784578772e-05
4.727713087504526e-05
5.2160347991048184e-05
5.490487467341154e-05
6.296631272562081e-05
6.468391018188413e-05
6.720038618368562e-05
7.452682041275693e-05
7.504414111281221e-05
7.647191102932993e-05
8.058984064973629e-05
7.998852811397228e-05
7.957977402384131e-05
7.844835499781766e-05
7.477552389900666e-05
7.030348251646501e-05
6.759209145457135e-05
6.323405909824942e-05
5.6269576134582167e-05
4.9535668495082064e-05
4.748385038055858e-05
4.614671865965647e-05
4.1644749899205635e-05
3.364654730830807e-05
2.2703350282426982e-05
1.2207828490318207e-05
1.0483046708031907e-05
1.2449197242858645e-05
1.0345241548748163e-05
7.01008582382201e-06
3.5610207760328194e-07
-7.298928494492429e-06
-1.0715190228438587e-05
-1.13284830831617e-05
-9.527770089334808e-06
-7.438483862642897e-06
-4.228592615618254e-06
-2.434778934912174e-06
-4.1734433580131736e-06
-5.5778674550310825e-06
-7.837629254936473e-06
-7.825078000678332e-06
-6.7960638716613175e-06
-3.313149818495731e-06
8.40848315419862e-08
9.011578185891267e-07
2.07110542760347e-06
-2.57225565292174e-07
-1.5122373042686377e-06
-2.1867094801564235e-07
-1.1201766483281972e-06
3.760864046853385e-06
6.2134383824741235e-06
3.851812607535976e-06
4.4982748477195855e-06
-9.020021707328851e-07
-1.8038883808912942e-06
5.11958774040977e-07
7.098032028807211e-07
4.139957923143811e-06
6.946841494936962e-06
5.42688167115557e-06
6.263573823162005e-06
3.863940150949929e-06
1.1770032415370224e-07
-1.3578576272266218e-06
3.634775112004718e-06
7.008692932686245e-06
1.0176262321692775e-05
1.632567102660687e-05
1.2288728385101422e-05
2.2077922494645463e-06
-4.030860509374179e-06
-4.395777978061233e-06
6.497855565612554e-06
2.2519969547829533e-05
3.393009785668255e-05
3.988856610703806e-05
3.4603408494149335e-05
3.2198317626352946e-05
3.544329274518532e-05
3.951880728436663e-05
4.299518116113177e-05
4.3613412685772346e-05
3.981429824762017e-05
3.44137059755667e-05
3.0018331813153054e-05
2.2695289658258844e-05
1.1091096553172974e-05
1.3869582744518993e-06
-6.851964826637413e-06
-5.379044637265906e-06
-1.1939597470700392e-06
-1.4713168638991192e-06
-4.451022505236324e-06
-7.184017590589065e-06
-8.199320291168988e-06
-6.376238047778315e-06
-4.412922521623841e-06
-5.5511168284283485e-06
-6.861142196612491e-06
-2.184847858188732e-06
2.4905179998313542e-06
5.157321311344276e-06
1.0833728197212622e-05
1.276624550428096e-05
1.441668473489699e-05
