-4.278913081634528e-06
-8.654892383219703e-06
-1.1733727717455622e-05
-1.424178520892383e-05
-1.361317697501363e-05
-1.7913070223585237e-05
-1.9482608308862837e-05
-1.9948849114825862e-05
-2.1220279904810013e-05
-1.748088197928155e-05
-1.665200494471719e-05
-1.8434503942899028e-05
-2.204252706405896e-05
-2.642633762661717e-05
-2.941070596307327e-05
-3.5515568697519484e-05
-4.111834971354256e-05
-4.84924599390979e-05
-6.309582374797174e-05
-7.283017475856468e-05
-7.645998294947276e-05
-6.567896900833148e-05
-3.7684208734845015e-05
6.3227596456272295e-06
6.6946292463399e-05
0.00013621527159557445
0.00020639209265027603
0.0002501334677731393
0.0002454694119364831
0.00019417780174535437
0.00010329487429316941
1.1583943887671921e-05
-5.4162484275366296e-05
-8.949741766173247e-05
-9.417000813982668e-05
-8.383003250855836e-05
-6.792688708401329e-05
-5.17571631348801e-05
-3.880637007114274e-05
-2.8420167154763476e-05
-2.4648868190979556e-05
-2.1024121281243424e-05
-1.6812556566492276e-05
-1.786184225238685e-05
-1.5732653821487474e-05
-1.5838725971661916e-05
-1.6229525385824672e-05
-1.7483905878634687e-05
-1.8447528532306023e-05
-1.336695072495786e-05
-1.1749637565117155e-05
-1.1253289187607152e-05
-1.152356333022908e-05
-1.517184273325256e-05
-1.549521135757459e-05
-1.4416631643143774e-05
-1.167876416729996e-05
-1.110920726432596e-05
-1.4408560730316822e-05
-1.6632987239972863e-05
-2.007540001613961e-05
-1.9960035160693224e-05
-1.599042514044413e-05
-8.88672320797923e-06
1.7385428918714751e-06
6.52767778319685e-06
8.803398316103994e-06
1.0898143045778852e-05
7.875141534441354e-06
6.405021849786863e-06
7.4121480793110095e-06
1.1299354468974343e-05
1.5763799012802338e-05
2.0070954349193926e-05
2.4942446543718688e-05
2.5538081217746367e-05
2.7702821000730182e-05
3.220737335141166e-05
3.531818032342926e-05
4.083324131443078e-05
4.362371254273967e-05
4.6852801858676685e-05
4.842127327719936e-05
4.605413596436847e-05
4.6042754945574416e-05
4.0337605980766966e-05
3.3094844297920645e-05
2.777482148985655e-05
2.1762156791282905e-05
1.7644907984504243e-05
1.1613302660862246e-05
7.282797810148622e-06
3.754149815904384e-06
-4.437520090050384e-06
-1.0238724087230366e-05
-1.6445518440377782e-05
-2.0885237120182865e-05
-2.2695548921092268e-05
-2.4495008119629347e-05
-2.2489894774935237e-05
-2.3108713662622904e-05
-2.2710154837568552e-05
-1.9268465621280484e-05
-1.7873778176635824e-05
-1.3436841584280046e-05
-1.2259335619546619e-05
-1.301698199540624e-05
-1.5493929083731928e-05
-1.926414762465356e-05
-1.6683080673374207e-05
-1.2764422081090743e-05
-7.782962086366751e-06
-4.9429393129685195e-06
-4.118582523915393e-06
-3.339021588999458e-06
-6.944699293853773e-06
-7.762947745959536e-06
-5.95118058299704e-06
-7.569815011265746e-06
-5.1122048603247094e-06
-3.3890742656694783e-06
-3.6092241089136223e-06
-3.2413610142612015e-06
-3.2479792366757465e-06
-1.7880684026749805e-06
-3.077640371884627e-06
-2.7388811645323585e-06
-2.3454674646927742e-07
-2.008016735999263e-06
-2.061463533209462e-06
-5.317774025570543e-06
-7.101493622485577e-06
-6.172147720917565e-06
-6.900166169998556e-06
-3.186070841820765e-06
-4.663816241645691e-06
-7.2602926479703456e-06
-5.175539342872071e-06
-5.036330264829303e-06
-1.6879848203643633e-06
-1.0397856726740429e-06
-3.5495207839630893e-07
2.5085095671784075e-06
3.1525241865892895e-06
7.2409582685395435e-06
1.0603747057302826e-05
1.3359313243199722e-05
1.3639259975661844e-05
1.0410552533812734e-05
7.302350866211782e-06
2.554972127200017e-06
2.2042642058295314e-06
5.814427879613504e-06
6.9548675014630135e-06
9.482989355547033e-06
7.146530890622671e-06
4.073365346357605e-06
5.93658739944658e-07
-4.230299111895874e-06
-5.694935339306539e-06
-1.0032167494955502e-05
-1.4519183366701327e-05
-1.754931895447953e-05
-2.0798812215616636e-05
-2.080722686059744e-05
-2.286027057607498e-05
-2.4101357666950207e-05
-2.3472097268495418e-05
-2.744659730069543e-05
-2.9261640293043456e-05
-2.9548913232702034e-05
-2.7712226653875405e-05
-2.8201050213283452e-05
-3.177230263418096e-05
-3.624809608027135e-05
-4.865033002943164e-05
-6.0830167399217316e-05
-6.761365256124918e-05
-6.961931961768641e-05
-5.45698285918661e-05
-2.3942955181155412e-05
2.4433156511349807e-05
8.947535570769105e-05
0.0001615529068885735
0.00022971870782839687
0.00026303931849724904
0.00024274509854649295
0.00017211931196925434
6.87679956286047e-05
-2.999398026304334e-05
-9.695037152823716e-05
-0.00012162116888703167
-0.00011557229623804233
-9.61452049637046e-05
-6.78842527577217e-05
-4.7237850424153294e-05
-3.3547067062045244e-05
-2.333650286345801e-05
-2.09420562100604e-05
-1.7512151259779785e-05
-1.4783134815843368e-05
-1.1255438266744022e-05
-6.024946060279035e-06
-6.202357269557979e-06
-7.576681923637807e-06
-1.231587646088883e-05
-1.7679826441963087e-05
-2.1313582465154468e-05
-2.181425401204251e-05
-1.6616610707842483e-05
-1.4131516195448057e-05
-1.2085559148999891e-05
-1.126623584468689e-05
-1.2767110888489697e-05
-1.165503113043087e-05
-1.2557859463413479e-05
-1.1823866202576028e-05
-8.808197435428156e-06
-1.0989047041221056e-05
-1.0131652970812866e-05
-8.990782362161553e-06
-7.734397684089345e-06
-5.494267099948047e-06
-3.966381598274893e-06
1.5222732372421888e-06
5.399322731136635e-06
9.709593769002822e-06
1.4430871999593364e-05
1.3637028985158395e-05
1.4088161606196081e-05
1.6218475821005995e-05
2.0957269839527726e-05
2.6667662154977734e-05
3.1731986780414445e-05
3.875426540389526e-05
4.180334144621156e-05
4.371527586499724e-05
4.4962969866446656e-05
4.350428361021841e-05
4.271729261517976e-05
3.947506411350332e-05
4.001732293090754e-05
4.1334163654482836e-05
3.784224105629619e-05
3.6427414386253076e-05
3.0630692265276593e-05
2.456517512428036e-05
1.985757074862704e-05
1.1094523813426349e-05
5.327340943495074e-06
-1.937973991061881e-06
-8.818942887955927e-06
-1.022216576984647e-05
-1.212935671901505e-05
-1.259930968444678e-05
-1.4699796793138376e-05
-1.7728883278778085e-05
-1.946502948158013e-05
-2.165302566936589e-05
-2.1676357675914915e-05
-2.291024208034287e-05
-2.4409987531726074e-05
-2.458883466260886e-05
-2.303214279208987e-05
-1.7390825576057978e-05
-1.522236698292545e-05
-1.3090602806187235e-05
-1.129348663653218e-05
-1.4375595469573454e-05
-1.2202675918615569e-05
-9.456599116219877e-06
-6.171808081489871e-06
-3.2955197184492135e-06
-4.690619960001641e-06
-5.119470245062985e-06
-8.459444586605969e-06
-1.0603207840631512e-05
-9.158030877642886e-06
-9.85754695648211e-06
-7.367650255218905e-06
-4.466724703888758e-06
-1.567536060065322e-06
2.821224143190193e-07
-1.173924601971521e-07
1.6010043282221886e-06
-3.3144874578283634e-07
-1.543555526950513e-06
-1.5749353678984335e-06
-3.992698907495651e-06
-3.725942463006504e-06
-5.835832382672379e-06
-5.832184854170919e-06
-1.6278782482004317e-06
-1.9146988847751345e-06
5.996397476337734e-07
1.3026292435824871e-06
-7.913979516160907e-08
1.9271962514721963e-06
2.1016836626586155e-06
4.495163125284307e-06
6.431501333281631e-06
6.786217738863343e-06
8.23738588451306e-06
6.223768707513955e-06
6.458033794842777e-06
6.3517927628709e-06
7.923440193735587e-06
1.046640858248793e-05
7.995023679541191e-06
7.839913052976044e-06
5.10141637732886e-06
1.8135971799893014e-06
1.1559128552107722e-06
-9.906923423841363e-07
-2.5763764597286354e-06
-8.292705729218142e-06
-1.2142552122895722e-05
-1.3167182373763353e-05
-1.6126868160881713e-05
-1.5836432282867463e-05
-1.7422474911654717e-05
-1.8206864865533134e-05
-2.1289749895458954e-05
-2.517549319236423e-05
-2.291705351353812e-05
-2.2759038813546795e-05
-2.393995748661837e-05
-2.459402452359427e-05
-3.211556571613983e-05
-3.873784061170227e-05
-4.6381872436995764e-05
-5.600459491006404e-05
-6.515528264117165e-05
-7.4063060253593e-05
-6.947588610728417e-05
-4.7760085465142765e-05
-7.846930543564667e-06
4.859656957023617e-05
0.00011487625357631259
0.00018516222377229496
0.00023650887777648677
0.00024985131398125304
0.00021493266302741176
0.00013303152547905484
3.5584460817972285e-05
-4.542467854662391e-05
-9.20018534884548e-05
-0.00010431174672476118
-9.299667237883114e-05
-6.967389259671108e-05
-5.059959255504509e-05
-3.737746283150045e-05
-2.850777633511825e-05
-2.7496634231738426e-05
-2.3839572463657532e-05
-2.041188275825334e-05
-1.8681353935789957e-05
-1.7707367874209012e-05
-2.03188460545789e-05
-2.154243514951304e-05
-2.394450308429441e-05
-2.359564513199075e-05
-1.9218205920878972e-05
-1.3615575198855367e-05
-8.101309845187643e-06
-8.521930851657089e-06
-1.1238552701797744e-05
-1.1594636873724085e-05
-1.2866939414379885e-05
-1.1663947987017309e-05
-9.9828074553443e-06
-8.769023679633392e-06
-9.146909746959864e-06
-1.018150686604713e-05
-8.560401795421058e-06
-9.731435568482993e-06
-1.0195577885951934e-05
-7.454598858203099e-06
-8.370317402750516e-06
-5.809036167647719e-06
-4.333541085088655e-06
-2.5929898583854083e-07
5.854025857843226e-06
9.507529568963946e-06
1.7849588630269864e-05
2.229702533895761e-05
2.42542466253326e-05
2.8718425937768188e-05
3.1169385636076186e-05
3.390567337646644e-05
3.440505599883181e-05
3.616660166017027e-05
3.949533135028105e-05
3.8836922783502814e-05
4.155306658049085e-05
4.314023675533463e-05
4.4438742406782694e-05
4.699206209579643e-05
4.6565711613766325e-05
4.5343952706389246e-05
3.671110573577607e-05
2.6361165907928807e-05
1.888341529365789e-05
1.0256182804369018e-05
6.308506158347882e-06
2.296632146681077e-06
-3.3933580425582477e-06
-1.1618611722497008e-05
-2.131682470007945e-05
-2.5460877168370644e-05
-2.842557597659834e-05
-2.5688215487207344e-05
-1.8116483659014193e-05
-1.4648234753167344e-05
-1.1426539913372835e-05
-1.1789494180902693e-05
-1.56183342028271e-05
-1.5833118482078135e-05
-1.814973887803717e-05
-1.8834002446510567e-05
-1.79861397100467e-05
-1.525562106508005e-05
-1.2261126698831504e-05
-1.0709356274674064e-05
-6.412909158370894e-06
-5.850266688867123e-06
-6.044056647169782e-06
-6.111436789524305e-06
-9.763297896370204e-06
-9.8585164778342e-06
-1.0288521991697053e-05
-9.407690242824174e-06
-6.835012413830555e-06
-6.404209955235274e-06
-3.766227280266321e-06
-4.055369743127812e-06
-5.485352460254944e-06
-5.026778069350257e-06
-5.645572912271746e-06
-4.691430092407245e-06
-5.704516127025272e-06
-4.125225757434237e-06
1.2930321418025414e-06
2.36454468449665e-06
4.768169731050875e-06
3.713792409598682e-06
1.3371202953749162e-06
-2.665684633029741e-07
-1.6256485082521976e-06
-1.5793781358297565e-06
-6.3756695567462884e-06
-8.894043617146963e-06
-6.834340297245944e-06
-6.5517468215148256e-06
-1.1020299552910728e-06
3.2617175520499586e-06
5.3043605134917016e-06
9.8691058951772e-06
1.0856051858354476e-05
1.3092947540371824e-05
1.2103361086701625e-05
8.194143163109402e-06
7.526622368914104e-06
5.926563346747571e-06
7.724286319898965e-06
7.393970349767187e-06
4.9596208668845065e-06
3.3896010336320614e-06
-2.257047242437693e-06
-5.127670476667845e-06
-7.109161231255712e-06
-8.082930207820027e-06
-7.3645308020786615e-06
-8.81671684282992e-06
-1.0986502445575752e-05
-1.588502061622421e-05
-2.1553909391514026e-05
-2.573584043830124e-05
-3.009576477097653e-05
-2.8631784289245843e-05
-2.6592602011987765e-05
-2.3631797034795454e-05
-2.2125761006464018e-05
-2.5277212046148634e-05
-2.573296580976603e-05
-2.8734605450608797e-05
-3.4318392522436625e-05
-4.2279527576738474e-05
-5.526038012249046e-05
-6.742919504176825e-05
-7.500089435552582e-05
-6.772464905679954e-05
-4.025487152148344e-05
9.134862466453342e-07
5.963549034504467e-05
0.00013048804851223395
0.00020056526597045377
0.00025092362790246625
0.0002568445574411271
0.00021281573111764374
0.00012390088772917807
2.2850752827707765e-05
-5.208829679759219e-05
-9.341113548089197e-05
-9.880269635687e-05
-8.614528383077413e-05
-6.908186674081662e-05
-5.3978890150574443e-05
-4.3746811513756256e-05
-3.22242398169692e-05
-2.5878011626900843e-05
-2.234215457974642e-05
-1.969332043927352e-05
-2.0411747698290128e-05
-1.6666799297127e-05
-1.555450808155001e-05
-1.6653747650252626e-05
-1.395396498082846e-05
-1.865865817762824e-05
-2.0772942718849663e-05
-1.9544773465440812e-05
-1.8149412426282652e-05
-1.4936721981939627e-05
-1.3274831246690155e-05
-9.15290070224728e-06
-9.17683280476922e-06
-1.1178970225955709e-05
-9.510138852419914e-06
-9.19814624467108e-06
-8.232231095917086e-06
-9.149124707619194e-06
-9.68245484500585e-06
-9.71877165056867e-06
-9.915175837704737e-06
-4.052507620144752e-06
-1.6638955457892735e-06
-3.828018805052125e-06
-5.588220687968715e-06
-8.023185273486888e-06
-4.393938979774248e-06
1.186486827009503e-06
1.1226739275116415e-05
2.479221848261659e-05
2.9174352675909176e-05
3.465929660251277e-05
3.6783235714210605e-05
3.51775836975321e-05
3.817918042159363e-05
3.9204921563396056e-05
4.046226501941419e-05
4.25152775846982e-05
4.265939924152917e-05
4.116515947316657e-05
3.6696428651339374e-05
3.578988531671712e-05
3.378245753538067e-05
3.316848994927568e-05
3.484227261196793e-05
3.1370965700716624e-05
2.7271139572349057e-05
2.0176600116883492e-05
1.1514951722801925e-05
4.908863786567963e-06
-1.9165512981089705e-06
-6.349829391183448e-06
-1.1572753635391564e-05
-1.669698463047098e-05
-1.777910944156247e-05
-2.3003880016858602e-05
-2.4597151877969736e-05
-2.4601920131317456e-05
-2.460003230453367e-05
-2.006435170187615e-05
-1.611493127029462e-05
-1.2520492930434557e-05
-1.246612487193488e-05
-1.5084280107657833e-05
-1.6659160621657065e-05
-2.0885648609691998e-05
-1.8757064196961437e-05
-1.4180606967784115e-05
-1.1877888368871936e-05
-8.768492591570975e-06
-9.934888566931477e-06
-9.816543524721055e-06
-7.406661723052821e-06
-5.230502495123801e-06
-3.4666816759454377e-06
-4.530021101345483e-06
-4.633847765944665e-06
-6.334098543447908e-06
-5.261828277980385e-06
-1.927278447055869e-06
-4.559176943530474e-06
-3.430345373089949e-06
-1.8371256942373293e-06
-1.1944213724746078e-06
7.10083781996218e-07
2.3157400619311375e-07
-1.572926748849568e-07
-2.199865207330731e-06
-3.404326264444535e-06
-2.479904594565596e-06
-5.637197205032862e-06
-6.818500992267218e-06
-6.667270270099834e-06
-6.1340931551967515e-06
-2.996697503476753e-06
1.1096099115093239e-06
6.41727046968299e-06
7.91939532973629e-06
5.867002471404703e-06
4.186916100934468e-06
2.788654114738165e-06
6.426659524549905e-06
1.0000571819546167e-05
1.1995650595508778e-05
1.4731229896369769e-05
1.0222116202385223e-05
8.582744271734555e-06
8.72690986852831e-06
8.861124740633386e-06
1.1495499109059892e-05
1.1365061368451279e-05
1.2390542224238743e-05
9.854992072177993e-06
8.683114174345974e-07
-5.474443014463759e-06
-1.240721576323267e-05
-1.4136453899027401e-05
-1.2780418614966038e-05
-1.1659541087283287e-05
-1.3288399543398555e-05
-2.051084612730847e-05
-2.1964884012959374e-05
-2.399205948222516e-05
-2.8761292639956082e-05
-2.989115745322124e-05
-3.301112002418449e-05
-3.4381755483536836e-05
-3.496420771398334e-05
-3.4722903819783824e-05
-3.432135969205774e-05
-4.3613443722279044e-05
-5.4453988525438035e-05
-6.521333693854103e-05
-7.600769259852314e-05
-7.601085417263675e-05
-6.347250081262246e-05
-3.242365721689566e-05
1.3757089391219779e-05
7.590911098986908e-05
0.00015160536264602342
0.00021878620708548624
0.0002617702963902957
0.0002557366832434127
0.0001977843794520595
0.00010550372434181554
6.151834497813979e-06
-6.261285756181678e-05
-9.620948031852095e-05
-0.00010132201219903436
-8.57837741818912e-05
-6.690051878877057e-05
-4.808817283219469e-05
-3.415049940258541e-05
-2.5598986894692644e-05
-1.9227545124067547e-05
-2.060823197780337e-05
-2.20257063574536e-05
-2.3297712402836623e-05
-2.5085310767281044e-05
-2.39070901670857e-05
-2.378776349587497e-05
-2.06544040679546e-05
-1.8115783404937247e-05
-1.7397901331150933e-05
-1.4186397947923979e-05
-1.3085670673262939e-05
-1.1102832672804652e-05
-9.444825252558076e-06
-1.0534170826304035e-05
-1.2289002143006655e-05
-1.4432709406264621e-05
-1.292762965476868e-05
-1.1252098261138599e-05
-1.1501273831981962e-05
-9.640440453040355e-06
-9.282341295602237e-06
-7.201342498319718e-06
-5.356303518055938e-06
-5.351209097170795e-06
-3.5181361681679846e-06
-5.241070084593957e-06
-2.784767104913044e-06
1.577157547671959e-06
5.487302303208708e-06
1.0646130363056727e-05
1.2311315174429183e-05
1.6291921269839804e-05
1.9673801716635353e-05
2.354329262743704e-05
3.087420321890022e-05
3.35163182398901e-05
3.829504197483402e-05
4.183539596169794e-05
4.398664259497309e-05
4.7849869531546574e-05
4.673712805924879e-05
4.7148012015441054e-05
4.6141714278746804e-05
4.202423446031389e-05
3.8815865764263435e-05
3.317959925652758e-05
2.7551780192425213e-05
1.976825274141447e-05
1.2979585733319254e-05
9.98260389906136e-06
2.7096019152850204e-06
1.0871503945963923e-06
-2.7536458446775214e-07
-4.860739352352539e-06
-7.660397955078224e-06
-1.3180898122300277e-05
-1.6685476850852865e-05
-1.823154656221959e-05
-2.0380389514684794e-05
-2.0740261390983505e-05
-2.2153897248244903e-05
-2.0509972159743484e-05
-1.769583457189583e-05
-1.585480430321695e-05
-1.4068389759813726e-05
-1.6557394474148168e-05
-1.5865207899423694e-05
-1.4689450893001776e-05
-1.5881335968970234e-05
-1.3079915618163795e-05
-1.1599613287671673e-05
-9.415192891992774e-06
-7.966396310621349e-06
-5.0310076176174334e-06
1.9080687252426287e-07
1.1249778708588565e-07
5.737762762692e-07
-2.3850755042076344e-06
-6.954999491881608e-06
-6.502326414192794e-06
-3.6961003502256062e-06
7.176056442403933e-07
3.2227420661001815e-06
3.1641911277802137e-06
2.6638627446118335e-06
-1.6387238588322361e-06
-2.406231885743182e-06
-2.1627917021760368e-06
-2.1253624140626926e-06
1.9061262719333172e-06
2.3826386268410715e-06
2.242931088858313e-06
7.520577582909027e-07
-3.4768215755320853e-06
-5.2375162340467796e-06
-7.223822933610791e-06
-9.423201902336586e-06
-1.2041783861604927e-05
-1.2675192806455016e-05
-8.171637830400869e-06
-4.943965905113146e-06
5.768176265519287e-07
4.953677773755771e-06
4.881355494035233e-06
5.425003053005639e-06
4.353818837898871e-06
3.89981181569965e-06
4.58278640280696e-06
4.231328773585119e-06
6.462256806116784e-06
5.694529988886643e-06
6.632258475747221e-06
6.975130361297488e-06
5.592536865606235e-06
5.998071571866603e-06
4.434996014879289e-06
6.3478224205937295e-06
6.321455941815657e-06
2.242792334072874e-06
6.275815280787356e-07
-3.837943154394452e-06
-7.558577522104315e-06
-1.0243368308238132e-05
-1.2282164277621632e-05
-1.2773323078363319e-05
-1.6158858613835037e-05
-1.5331799943396618e-05
-1.6428389244538266e-05
-1.911765161821677e-05
-1.873798811402594e-05
-2.1303603091382683e-05
-2.1724987163906917e-05
-2.3120999912862317e-05
-2.7680964080900594e-05
-3.017878054834e-05
-3.7719132819802326e-05
-4.127893095073887e-05
-4.566422683183191e-05
-5.427572358485122e-05
-6.319298489643188e-05
-7.418869046205145e-05
-7.022924091870664e-05
-5.188275520140451e-05
-1.4155138387650368e-05
4.3077952170733624e-05
0.00010749474853355423
0.0001791647800928331
0.00023674792356587204
0.0002554016855924601
0.0002277063821907177
0.0001493286985123632
4.972356623511587e-05
-3.341650449328881e-05
-8.14151705412769e-05
-9.554997706118229e-05
-8.956441831742268e-05
-7.230720865436524e-05
-5.781782442682015e-05
-4.495327107179037e-05
-3.123359061873998e-05
-2.6267342377650493e-05
-2.2788177261645615e-05
-1.9640264611098246e-05
-1.8470452005203697e-05
-1.6034989812396816e-05
-1.678361809354101e-05
-1.717067294748631e-05
-1.908593293364902e-05
-2.2866539154620114e-05
-2.029665381542145e-05
-1.8572977523945156e-05
-1.5055283824949584e-05
-1.1547484689344856e-05
-1.1674465667965706e-05
-1.1361743361248955e-05
-1.51722060195425e-05
-1.6162407007414004e-05
-1.3627861505938199e-05
-1.2491979930473462e-05
-9.193650214456284e-06
-7.83538604309797e-06
-7.5006017823398e-06
-7.468341834737657e-06
-6.538600814565143e-06
-3.2421749551758694e-06
-5.971776147362107e-06
-7.582377691051079e-06
-5.9452608525134565e-06
-4.406658092648286e-06
1.3803146430291235e-06
8.482492205530434e-06
1.464664268269189e-05
1.6441030425085046e-05
1.7630369086418796e-05
2.3345896977389202e-05
2.9066558568047185e-05
3.5933467472659686e-05
4.083774462060319e-05
4.160995877100504e-05
4.309123488610567e-05
4.069145199991908e-05
4.1777294086386974e-05
4.3032335895532015e-05
4.079273969637143e-05
4.0795742734189844e-05
3.879834372355617e-05
3.93015390045548e-05
3.899495686709997e-05
3.2619437945413665e-05
2.628149513839162e-05
1.5394106185340206e-05
6.412104710307176e-06
1.3907172160543269e-06
-3.861451489228784e-06
-8.541894430891261e-06
-1.636025228890503e-05
-1.9695811658948514e-05
-2.041215373083105e-05
-2.215496476765111e-05
-1.826639442015221e-05
-1.623688899599074e-05
-1.564815227084182e-05
-1.3866635072190547e-05
-1.4247191188587749e-05
-1.3060723517810402e-05
-1.5606090471464995e-05
-1.631127634027507e-05
-1.6013229299005616e-05
-1.7370578177633433e-05
-1.620881380404171e-05
-1.6138473995397362e-05
-1.5811364278306428e-05
-1.5754832418224396e-05
-1.3703496108519175e-05
-8.415456363763951e-06
-5.759085013323784e-06
-1.8356880673309206e-06
3.1899151053949026e-07
-1.7378823145008937e-06
-1.6566962699471333e-06
-4.174431978754001e-06
-3.010229590927338e-06
-1.5623126614627836e-06
-4.432650996477605e-06
-3.1779896971784183e-06
-4.134909488584526e-06
-5.1645070584527275e-06
-5.445510282697796e-06
-3.889655147304438e-06
4.974774014954164e-07
-2.920818928942026e-07
1.4288205534285225e-06
1.256901214219397e-07
-4.4700977923639584e-06
-4.381972587452765e-06
-6.212351138401573e-06
-4.291319214644318e-06
-1.0987386076521943e-06
-2.5371799665663275e-06
-2.9798050604767923e-06
-6.233894453089306e-06
-6.597427784527099e-06
-2.7565253617467533e-06
8.088942990980286e-07
4.320220853060164e-06
1.907518594634894e-06
2.2693434971188253e-06
3.9927476791490335e-06
5.009043775316968e-06
1.1342826326199429e-05
1.4435698517445417e-05
1.4364732351168641e-05
1.1769834202368656e-05
7.719604241174238e-06
6.759746156603796e-06
2.6032201390080445e-06
3.2747673799349286e-06
4.134555069867929e-06
7.37506184123049e-07
-1.5969745277288894e-06
-6.25044293656174e-06
-9.581534527569602e-06
-1.146676095231669e-05
-1.3610226574201079e-05
-1.4311018844637147e-05
-1.8421395452605793e-05
-2.1133075961188297e-05
-2.111558006845371e-05
-2.119837387226653e-05
-1.9686792143147613e-05
-2.0819750034206663e-05
-1.8794273216826696e-05
-1.8052632697163062e-05
-2.1045635719474376e-05
-2.155117022084596e-05
-2.566548124605106e-05
-3.2702735779821523e-05
-4.325705685914727e-05
-5.633968402207756e-05
-6.757723775763225e-05
-7.743050070985191e-05
-7.666242532877732e-05
-6.164775692241165e-05
-3.0239209877436224e-05
1.8500336921078997e-05
7.935328812891385e-05
0.00014989402416176745
0.0002156720194079753
0.0002505514865447367
0.0002418257364524834
0.0001819599665395799
8.763781499965262e-05
-4.516158242040547e-06
-6.735574606864247e-05
-9.402572135286391e-05
-9.604368341342706e-05
-8.170080656100254e-05
-6.34335094105154e-05
-4.790012258126808e-05
-3.2054226664968155e-05
-2.2170493366502342e-05
-1.974167059870524e-05
-2.120971964814089e-05
-2.372938786265877e-05
-2.253104759120106e-05
-2.2353667247898557e-05
-1.906686389929746e-05
-1.4863762714867335e-05
-1.4036908737580234e-05
-1.2841143018249568e-05
-1.4582288372366747e-05
-1.5840410128475924e-05
-1.721496084883256e-05
-1.772734719907021e-05
-1.2475658650146215e-05
-1.0988642770826118e-05
-8.66034690716333e-06
-5.126759845097695e-06
-8.105551955850387e-06
-9.447990237276827e-06
-1.1263169767516956e-05
-1.0388275654804602e-05
-8.242570572747354e-06
-8.326349359322194e-06
-6.1890131064501475e-06
-6.329184031983459e-06
-6.546292979692225e-06
-3.508260533635621e-06
-9.684852670943656e-07
5.305629542817769e-06
9.695303162970959e-06
1.2939084001573065e-05
1.4711482549500943e-05
1.4957951179894735e-05
2.329295381287011e-05
3.834644604694404e-05
4.409893153933808e-05
3.6380069786901004e-05
3.3356917072069336e-05
3.336098416184541e-05
3.792438315031177e-05
4.420387074333121e-05
4.647731651630238e-05
4.6737404147734196e-05
4.189684051425502e-05
4.047039027454957e-05
3.9723313136619254e-05
3.4864988890603854e-05
3.2192662217767065e-05
2.522143671512822e-05
1.530755889689317e-05
6.467123228048877e-06
-1.8151500853491598e-06
-7.508079249873845e-06
-1.544991539503826e-05
-1.819008895154184e-05
-1.916206485930161e-05
-2.2012446606822778e-05
-2.2916060288480367e-05
-2.5116439928751788e-05
-2.4577477631737565e-05
-2.313350472604725e-05
-2.171812894857794e-05
-1.832443825833252e-05
-2.0258006486528757e-05
-1.947407605484841e-05
-1.675770300835211e-05
-1.6638969555060612e-05
-1.2412576438691758e-05
-1.1029318159216928e-05
-8.461204970444669e-06
-5.9474689919625234e-06
-7.477035694591905e-06
-7.260994721036695e-06
-8.405491541907395e-06
-7.850083193261526e-06
-6.651834439708182e-06
-6.651297496773623e-06
-4.523318239080254e-06
-6.633912107645301e-06
-5.854691551121505e-06
-3.977724702508567e-06
-3.6822365814259683e-06
-8.293974929074466e-07
-1.2629074603864865e-06
-9.71042766195751e-07
-4.180878931947518e-07
-2.012983486565645e-06
-1.1132331110275118e-06
-3.063111762457993e-06
-2.748811994024436e-06
-1.149296338098793e-06
-1.846141685746261e-06
-1.3175285289435124e-06
-5.718964416701056e-06
-7.592399583700171e-06
-6.876326096971752e-06
-6.572333688836807e-06
-1.4006147921463707e-06
1.3062995094514918e-06
1.2028892797388835e-06
-1.662196495999524e-07
-1.4641948382632108e-06
1.0012950610871485e-06
2.840293973349617e-07
2.828398919518804e-06
7.307594103167503e-06
7.348110500515759e-06
9.777891079920664e-06
1.0643065138538077e-05
1.066122484871812e-05
9.464342952014704e-06
7.404860753013054e-06
7.974395657583955e-06
4.2404354871905525e-06
4.700785439126776e-06
5.592817274191475e-06
1.3256923239168827e-06
-1.6840264152051532e-06
-8.56427925555181e-06
-1.2839396788422164e-05
-1.3698892132651963e-05
-1.779864146556065e-05
-1.73157379776967e-05
-1.627464337161655e-05
-1.6543232959520537e-05
-1.5972568917277385e-05
-1.7580542021278234e-05
-1.9299724669963325e-05
-2.483230201733022e-05
-2.79475648881089e-05
-2.9732506561686023e-05
-3.1400266209402616e-05
-3.0025694172763906e-05
-3.216186291865597e-05
-3.766041754715843e-05
-4.797782173682208e-05
-6.254694403651229e-05
-6.975491766070263e-05
-7.038843523332616e-05
-5.485063951482516e-05
-2.0340357366421813e-05
2.673414502396554e-05
8.97393825312065e-05
0.0001590514157214784
0.00022397283998998319
0.00025484988123025687
0.00023401366581765615
0.0001699941645938452
7.441133226393504e-05
-1.5479286560093897e-05
-7.441884366699014e-05
-0.00010063234992685466
-9.850079209172691e-05
-8.593324491812382e-05
-6.725446564814774e-05
-5.1143786095053656e-05
-3.990869095105154e-05
-2.8906932811878505e-05
-2.217658453673721e-05
-1.6047467852331465e-05
-1.0949754880584806e-05
-9.90674845979811e-06
-8.894480060916976e-06
-1.211229658792945e-05
-1.4582774554128264e-05
-1.4914338976268482e-05
-1.7292019720116514e-05
-1.7290287303239893e-05
-2.036067002109121e-05
-2.0691951704066014e-05
-1.869282641564496e-05
-1.968263785556701e-05
-1.5936292982132727e-05
-1.3105882658237533e-05
-1.106785379079156e-05
-6.7560180241343915e-06
-5.30030985146368e-06
-3.4988335642083257e-06
-6.1062370377840125e-06
-7.617659321113024e-06
-6.808360069499031e-06
-6.4442420466548356e-06
-3.7733295812358847e-06
-3.9671319314038556e-06
-4.485470299187e-06
-4.3088773509225575e-06
-1.3730161185776524e-06
7.878248311499192e-06
1.407085301252664e-05
1.8863485195197427e-05
2.2447626690791367e-05
2.1824691089022963e-05
2.457774593267459e-05
2.652522488233444e-05
3.081477564137458e-05
3.5556488512611395e-05
3.634073351577172e-05
4.030020932077605e-05
4.313899211183525e-05
4.4335115717331064e-05
4.388746492622886e-05
4.043608049641989e-05
3.8561299504635826e-05
3.311871421374235e-05
3.081053387177235e-05
2.995323313825793e-05
2.5856198021756427e-05
2.2448575236921897e-05
1.4763637636860949e-05
5.561213299642986e-06
-2.985245657782798e-06
-1.149800607436191e-05
-1.5521337047630368e-05
-2.088619640971956e-05
-2.2918844081232237e-05
-2.221938007096469e-05
-2.2591954632389388e-05
-1.7664926929228386e-05
-1.267747438760125e-05
-7.600998685575178e-06
-6.368587605720677e-06
-1.0979808678257541e-05
-1.4346197929171467e-05
-1.710089998141484e-05
-1.7022593851834245e-05
-1.3991897503728978e-05
-1.2131475500609668e-05
-9.370631119054451e-06
-9.942699534803978e-06
-9.156353712569398e-06
-7.330353469114925e-06
-1.0631176394326758e-05
-1.2745617539167142e-05
-1.2998428189803235e-05
-1.2034334076815867e-05
-7.918876065104996e-06
-4.776316075094655e-06
-1.8160297940994496e-06
-2.4769836386440147e-06
-1.8432827459946566e-06
1.3013820421292621e-06
1.1010794196408824e-06
-3.575024720703368e-07
-5.156442284715013e-06
-7.102357756139099e-06
-5.937285322943353e-06
-5.217993361839035e-06
-1.3464294852383318e-06
3.4883856869782903e-07
-1.6291903648379957e-06
-3.1777892104400962e-06
-3.1540204190605436e-06
-6.339931246657216e-07
-1.756296114763245e-06
-1.3541203998101992e-06
-1.681548837950686e-06
-5.394900369992683e-06
-3.891362950980692e-06
-1.3820736057823524e-06
4.51339673190887e-06
1.1482680292829173e-05
1.4140129849238292e-05
1.8406042272545164e-05
1.5276762098892505e-05
1.261031673038815e-05
1.2889768186141737e-05
1.0195540824042837e-05
1.1077394617586833e-05
9.743522866756393e-06
9.715714554658916e-06
8.612464455381996e-06
1.9674184272844286e-06
-2.608750207855337e-06
-1.0115766997387254e-05
-1.7542369391776447e-05
-1.9851412105253985e-05
-2.0950721420831542e-05
-1.8124958785392664e-05
-1.8049219590920984e-05
-1.860498440464653e-05
-1.917549229801807e-05
-2.3032058436456282e-05
-2.5293391274772148e-05
-2.864747483499741e-05
-2.9414195466870297e-05
-2.8008815036173473e-05
-2.7726859741505905e-05
-2.589528293128751e-05
-3.341178859272986e-05
-4.5263976176102005e-05
-5.683402122258485e-05
-6.915989956723934e-05
-7.092080170423287e-05
-5.9550687126375124e-05
-2.5257874540329794e-05
2.507012845853751e-05
8.50254539841444e-05
0.0001560994343776656
0.00021701244202176895
0.0002448410433544268
0.00022645241637064828
0.0001594962741933159
6.229261333601244e-05
-3.186222227213875e-05
-9.144320256382343e-05
-0.00011402865499121617
-0.00010886561125289518
-8.535215306437749e-05
-6.156241596499967e-05
-4.1424337382522936e-05
-2.8145742192009493e-05
-2.37457467733293e-05
-1.9962494150149723e-05
-2.089495245627404e-05
-2.0048007229434006e-05
-1.5508516469253664e-05
-1.236785823266473e-05
-8.558720537621411e-06
-9.14018318098897e-06
-1.0308698620065115e-05
-1.2445635832136759e-05
-1.701105958318294e-05
-1.3565507970270119e-05
-1.0293919331161305e-05
-8.655131978230202e-06
-5.802620933081926e-06
-7.831461800833495e-06
-9.310553537034139e-06
-1.342483488997459e-05
-1.4073341844778042e-05
-1.1376511054095317e-05
-9.41670253951088e-06
-5.740521828556666e-06
-5.244214491995081e-06
-6.378374848736712e-06
-5.316042461345205e-06
-3.3707353850331856e-06
2.8529547080324846e-07
2.0767458863701904e-07
-1.645465090405196e-06
-1.443210919660487e-06
7.554416470156866e-07
9.088306342164287e-06
1.5841201559396723e-05
2.112852911295704e-05
2.418735920173276e-05
2.3786439953710214e-05
3.0215483377560304e-05
3.635506891441764e-05
4.009304120700108e-05
4.284192442582935e-05
4.267019119197357e-05
4.6364001889287465e-05
4.717956380773103e-05
4.947113205844289e-05
4.9612170073487505e-05
4.3409981515196705e-05
3.8271308824278094e-05
2.9511060404274758e-05
2.0792829104721022e-05
1.6275607606530684e-05
1.2118695678964286e-05
1.2472754406189779e-05
1.0417759142455907e-05
5.422288893441873e-06
-5.206770197219157e-07
-1.0020893569162581e-05
-1.721244655072951e-05
-2.3841190170514892e-05
-2.5252419789012492e-05
-2.4056219672274892e-05
-2.767617411336687e-05
-2.502504560197849e-05
-2.0853432204148703e-05
-1.8851872596314934e-05
-1.3788933472369536e-05
-1.30773116779892e-05
-1.3975461740756145e-05
-1.6292667623929447e-05
-1.6020286409457185e-05
-1.331034093254857e-05
-1.2942514331371058e-05
-9.806023399505648e-06
-9.202404726238456e-06
-9.209352015204786e-06
-8.1439937957839e-06
-1.0478503725153132e-05
-9.811250379243575e-06
-1.0384765118942596e-05
-9.034958623033162e-06
-4.861906120368076e-06
-3.017488609202701e-06
-5.179418280931714e-07
-1.1794658121289103e-06
-2.0106660940655274e-06
-2.152408967504016e-06
-6.095619028201327e-06
-6.440215258862736e-06
-7.242497929382807e-06
-9.654112147927663e-06
-8.962495257947012e-06
-8.444687580322352e-06
-5.230672570633033e-06
-3.2893535149014497e-06
9.289338436246908e-07
5.668118831181346e-06
5.040133828515536e-06
5.866015328592766e-06
4.6278530589916045e-06
3.761604432384047e-06
8.010485089471331e-06
1.0145793794436031e-05
1.4143264706945047e-05
1.303706949329353e-05
8.986562932022935e-06
8.158749665199139e-06
5.548478384298505e-06
6.731999746989459e-06
7.596490718242421e-06
9.008259667098173e-06
8.652634733152809e-06
2.614227923913859e-06
4.642547537514474e-07
-3.3344833241244487e-06
-8.366060001208098e-06
-1.0635923672452918e-05
-1.4586443114694703e-05
-1.4261317403452267e-05
-1.6531939024844178e-05
-1.7556595537371322e-05
-1.7225238593709946e-05
-2.020155625359621e-05
-1.9343418784956157e-05
-2.135679801540391e-05
-2.4417181634817098e-05
-2.521923522635916e-05
-2.803352123237346e-05
-2.8641314770538884e-05
-3.3989363487307855e-05
-4.330610869374141e-05
-5.196454122824434e-05
-6.3324092025141e-05
-6.761694999113388e-05
-6.350385956466198e-05
-4.5524981658218167e-05
-8.636455447685876e-06
4.192489404886146e-05
0.00010950308285373467
0.0001809255501257212
0.00023234012633110979
0.0002414054112591657
0.0001974521863417067
0.00011392257857778532
1.3639158623846015e-05
-6.145755673969688e-05
-9.76024396095454e-05
-0.00010529163552064347
-8.85675667632313e-05
-6.650318192669147e-05
-4.7298115703142685e-05
-3.2867696063476615e-05
-2.6616654395184014e-05
-2.3320626951317536e-05
-2.545750317040074e-05
-2.5997596083016106e-05
-2.178705068445197e-05
-1.80053215785847e-05
-1.3067886754924984e-05
-1.2709842508229485e-05
-1.4088550244650833e-05
-1.5465284775473265e-05
-1.935395505370252e-05
-1.7074285153739766e-05
-1.3495190728463058e-05
-1.2316840354742453e-05
-1.0166645495246485e-05
-1.048414526394481e-05
-1.0006151001107355e-05
-1.2365639065592404e-05
-1.3020721496559418e-05
-9.180419851873012e-06
-6.713129607760493e-06
-1.9240592905589438e-06
-9.318860065832268e-07
-3.2775443514765357e-06
-6.386445761563664e-06
-8.975385242138145e-06
-4.799715327408194e-06
-2.5587090135559265e-06
1.6898781041163602e-06
7.013589367943496e-06
7.613981154008798e-06
9.200486715599254e-06
9.343406020434486e-06
1.3548224160331301e-05
2.115670793045865e-05
2.618179445335045e-05
3.3645541179794236e-05
3.7457579423971765e-05
3.654533412600358e-05
3.8099326786777965e-05
4.0689406432647957e-05
4.5013656290393556e-05
4.569750387872773e-05
4.53826987723005e-05
4.486317658347616e-05
4.010402432186311e-05
3.916335117537528e-05
3.7476237764622056e-05
3.2676209457349614e-05
2.9082366893362632e-05
2.060855729268951e-05
1.3707413131669455e-05
6.721316310631664e-06
2.8919089345436078e-09
-2.9602877020806773e-06
-8.825895292829955e-06
-1.5027458005079097e-05
-2.2342751663018134e-05
-2.6275368952610734e-05
-2.688789965077376e-05
-2.7811030577140627e-05
-2.4688617031642934e-05
-2.2798146403602004e-05
-2.1902440494159237e-05
-1.7743441446782526e-05
-1.472996393658832e-05
-1.1030333041617268e-05
-1.0517920998154295e-05
-9.800354234812403e-06
-1.0209658910298458e-05
-1.3817215517519799e-05
-1.2920383142045466e-05
-1.2884213447250659e-05
-1.2786171510015265e-05
-8.837933137328946e-06
-7.20872230886016e-06
-5.03330409173941e-06
-5.278205605918629e-06
-5.162086665677634e-06
-1.7668832015260705e-06
-1.6174822121683974e-06
1.5795166063981014e-07
-2.0048787519044708e-07
-1.0525305356168246e-06
-1.946197528468474e-06
-6.627143591231288e-06
-7.429016648075049e-06
-8.775161290941469e-06
-9.857326517703768e-06
-6.974834604989155e-06
-5.984280733173364e-06
-2.9221038744253747e-06
-2.063670876850665e-06
5.790831778540451e-07
4.2476074781916395e-06
4.325317831899156e-06
7.07233658658879e-06
7.293664282315149e-06
7.99268298123934e-06
1.2096232183012035e-05
1.212245734905082e-05
1.2498683531703136e-05
9.071640704405581e-06
4.976661216460343e-06
4.458416640318319e-06
3.215653578081401e-06
3.3401095720364538e-06
2.267557761115313e-06
3.675122343338444e-06
3.829142144695652e-06
3.820822485067765e-07
2.415843027847586e-07
-4.53255955790155e-06
-1.1098939012299525e-05
-1.280676713122375e-05
-1.4867656716432975e-05
-1.3387938906816998e-05
-1.086571887753962e-05
-8.783143016444228e-06
-9.062271828952362e-06
-1.4650960963535908e-05
-1.8839454810404277e-05
-2.5667903400972136e-05
-3.155135283350319e-05
-3.2140409587100294e-05
-3.523784289427567e-05
-3.374595127070279e-05
-3.418999733639794e-05
-4.203974032179758e-05
-5.309385829832536e-05
-7.098212830669581e-05
-8.271232081824564e-05
-7.852866326629737e-05
-5.247956573839474e-05
-5.564844514083234e-06
5.210759815099664e-05
0.000120030657285497
0.0001874441256290993
0.0002359618976583988
0.00024669770539276215
0.0002079715528111592
0.0001311930558927088
3.623289967435994e-05
-3.9371414288780215e-05
-7.936915045547721e-05
-9.208811110283932e-05
-8.166720834879015e-05
-6.388378477595325e-05
-4.8442552099459135e-05
-3.5068241345470597e-05
-2.7064091000283952e-05
-2.0407210513440077e-05
-1.9016297869711707e-05
-2.024162785119188e-05
-1.9587251870234468e-05
-2.3147339220486174e-05
-2.434936561712675e-05
-2.4394838305852318e-05
-2.429795415537228e-05
-2.2263313951498276e-05
-2.1628749607316422e-05
-1.6979456404442317e-05
-1.2665564099734183e-05
-1.096498255037659e-05
-1.0189046520281408e-05
-1.2621233167919854e-05
-1.0658550593234395e-05
-9.30214912386873e-06
-6.4895561990852e-06
-3.117056849077926e-06
-6.120105638274254e-06
-8.334764743267442e-06
-1.0155397148992051e-05
-1.1646717041458032e-05
-8.54293784868787e-06
-7.322058536374243e-06
-5.261434409931098e-06
-5.407408195878816e-06
-5.8122183759223844e-06
4.701124680650537e-07
4.76303796403954e-06
1.0981450145663985e-05
1.7057304546597152e-05
2.013132183265043e-05
2.3101437591321883e-05
2.3209457197026495e-05
2.7359884199995577e-05
3.263435712597129e-05
3.602079021902682e-05
3.93128336781956e-05
3.850849884656782e-05
3.856565177784432e-05
3.742675568219056e-05
3.950808661556948e-05
4.37871859162442e-05
4.217895786950976e-05
4.1800524002155726e-05
4.02097027176751e-05
3.334595572823673e-05
2.7743603482122126e-05
1.9571547738905792e-05
1.2990559127956658e-05
6.087927317821595e-06
-3.447559606684081e-07
-3.925752196209942e-06
-1.2132916765494883e-05
-1.655572987147025e-05
-1.921788862091489e-05
-2.0013175571875763e-05
-1.7535964502712886e-05
-1.9563783325793338e-05
-1.8709627738644485e-05
-1.8394844630620355e-05
-2.18576149677574e-05
-2.2242973557240475e-05
-2.2765610708574968e-05
-2.093380754786267e-05
-1.8372912450104195e-05
-1.4692922547965281e-05
-1.1847169332668273e-05
-1.4404663431832887e-05
-1.4377568788859207e-05
-1.435786595038735e-05
-1.3412783744115586e-05
-7.849373844237562e-06
-5.866777144092339e-06
-2.443199718982214e-06
-2.740476872986619e-06
-6.249575847050437e-06
-5.21543785225731e-06
-5.599062546934874e-06
-4.542930639672704e-06
-2.70501232080278e-06
-1.9512918356667797e-06
-2.3938384288157977e-06
-4.226636463044997e-06
-2.8302475811869954e-06
-2.243451490357984e-06
-3.006919200743141e-06
-2.3169781684373447e-06
-4.506234745349502e-06
-1.8922226558970578e-06
1.5084583537827712e-06
3.9740944544064405e-06
6.4750703927529685e-06
3.1894271614874015e-06
1.37415241852068e-06
-1.2710048054032086e-06
-3.7299574842108996e-06
3.2662188687027083e-07
3.294327427738608e-06
8.843375610467774e-06
1.0928014660294139e-05
8.494752307797171e-06
7.340960735291446e-06
2.9164728516661853e-06
3.3778534316297737e-06
6.759475809303694e-06
1.0163562251364056e-05
1.4028035138835548e-05
1.1323435785470792e-05
8.413488046699058e-06
2.7149071115672996e-06
-5.385415306591312e-06
-9.953317601230083e-06
-1.621503514570577e-05
-1.6856653473951155e-05
-1.6521982445283356e-05
-1.5930135020880698e-05
-1.1468400487046893e-05
-1.1886665163274301e-05
-1.3867937809664e-05
-1.872558931381718e-05
-2.4045419593221595e-05
-2.1631946026445803e-05
-1.989737245366996e-05
-1.3696725773115759e-05
-9.176665287213837e-06
-8.632222204596474e-06
-7.184832043094502e-06
-7.516704272347852e-06
-5.238112180450116e-06
-4.0845146713763825e-06
-1.5661743759665114e-06
-2.550354452068859e-07
-4.802283172011812e-06
-6.918299277458573e-06
-8.764770200286875e-06
-9.31793385916535e-06
-6.179088018143375e-06
-7.110887509043096e-06
-7.676438315229461e-06
-9.244123532425874e-06
-1.0785191875584133e-05
-1.012536512234874e-05
-1.167242862720741e-05
-1.0914029871855746e-05
-1.0016222574904532e-05
-9.014122383632639e-06
-4.5435345441546815e-06
-2.78208079862452e-06
2.7378382583265193e-07
1.495251808592002e-06
7.438519560309942e-07
3.815862953615579e-06
3.017762253421097e-06
4.188221964795957e-06
6.919005386407662e-06
1.0025009260061779e-05
1.6044898131895025e-05
1.889659591824966e-05
2.3283103701032815e-05
2.609054291724533e-05
2.716282631354261e-05
3.139277140462582e-05
3.334352419415154e-05
4.0208275322584086e-05
4.451256756965449e-05
4.718837061545855e-05
5.05145110309968e-05
4.735697154956142e-05
4.4576319112366036e-05
4.207828249036538e-05
3.699388486211319e-05
3.460714668790388e-05
2.8640457117035112e-05
2.1694570421004755e-05
1.3001774163967639e-05
3.019843290985591e-06
-2.953498835722712e-06
-9.556823556522431e-06
-1.2899066803129244e-05
-1.605769273282931e-05
-1.9062554486026784e-05
-2.0655789114698564e-05
-2.3386753980503272e-05
-1.9397475341520476e-05
-1.4608255355597066e-05
-1.2956669081631844e-05
-1.1072234769926581e-05
-1.6075176347385423e-05
-1.870241220558455e-05
-1.870970078243772e-05
-1.6660631672493764e-05
-1.169791352140237e-05
-1.0370418692673411e-05
-1.0432863177811669e-05
-1.280481563981084e-05
-1.475174889264963e-05
-1.341682377642428e-05
-1.3270088004446734e-05
-9.821677224408631e-06
-9.551414962061244e-06
-1.0927739992894203e-05
-8.115095113225834e-06
-6.888634118240589e-06
-4.648733693102258e-06
-2.9442672371260414e-06
-4.557396096060984e-06
-4.995852691536129e-06
-7.1249178859034146e-06
-5.757952408202982e-06
-2.400375251454534e-06
-2.119805742495373e-06
-2.3302817453441094e-07
-1.2001134450656537e-06
-1.1156391224176332e-06
-1.6566198155487655e-06
-5.010880840927712e-06
-4.263045696006884e-06
-3.8787965763731336e-06
-6.967932222323725e-07
4.0849822653399315e-06
3.717146796589077e-06
1.220872945850715e-06
-3.185420666795835e-06
-4.138234885431302e-06
-1.7815351611716324e-06
2.859330152205075e-06
1.0489621786291536e-05
1.1890997029695427e-05
1.2695637224169332e-05
1.2844660943756026e-05
1.1779217288676591e-05
1.1083241247433762e-05
6.466786828696058e-06
4.207355516427924e-06
1.9784904452535557e-06
4.877848027717846e-07
3.327857598378614e-06
9.978395496546e-07
-2.5269721390941413e-06
-8.175346238203929e-06
-1.4757416579413984e-05
-1.7408426629117457e-05
-2.0672300877322414e-05
-2.0185546645734576e-05
-1.7812907003644796e-05
-1.7458055367569614e-05
-1.7501155298305093e-05
-2.1675106097518437e-05
-2.7553768461530126e-05
-3.221671687470007e-05
-3.3284862468008214e-05
-2.9003765007473703e-05
-2.891613178235275e-05
-3.309654152872099e-05
-4.353104543497466e-05
-5.6004608325110894e-05
-6.571412978928493e-05
-7.589182786205129e-05
-7.300409896515703e-05
-5.46540093182557e-05
-1.983724729370806e-05
3.7646404962288216e-05
0.00010650602382611396
0.00018018975066524945
0.0002352202508859591
0.00024925012809262626
0.00021931629686378074
0.0001430119709198152
4.770897413663988e-05
-3.237637639585955e-05
-8.156454140362257e-05
-9.461447166358994e-05
-8.654119994844223e-05
-6.713015125114907e-05
-4.985305150739805e-05
-3.912604114475471e-05
-2.8255808047106257e-05
-2.5527177228923392e-05
-2.4831487337451108e-05
-2.2716661533195293e-05
-2.0963185647815408e-05
-1.8198161058080586e-05
-1.8716674503593822e-05
-1.921211344324547e-05
-1.958625034603756e-05
-2.088570494152009e-05
-1.752428522650007e-05
-1.641004348584829e-05
-1.4743228518909746e-05
-1.412045219240099e-05
-1.3672765931005415e-05
-1.066089907908463e-05
-1.1909657359865378e-05
-1.0948082831419015e-05
-8.15784392216301e-06
-8.886726448054105e-06
-7.474934534457134e-06
-6.566660317730566e-06
-6.936393617706926e-06
-8.68981715029804e-06
-1.0601025280720933e-05
-7.149511816351151e-06
-5.702376540739351e-06
-4.09155342140366e-06
-1.0407541708445933e-06
2.0041740640408534e-06
5.241938140443381e-06
8.350389975930739e-06
1.4074275270559156e-05
1.6747900929203752e-05
1.7286716854414408e-05
2.041187042323145e-05
2.191883436353237e-05
2.69390931180169e-05
3.0458404921773763e-05
3.421375464540688e-05
3.926398215980953e-05
4.076491006799188e-05
4.344961820379467e-05
4.5041009457236214e-05
4.5173720138791396e-05
4.6772750465606805e-05
4.624372860462245e-05
4.4762184302271635e-05
3.727003144149421e-05
2.5965930490201572e-05
1.813379248005731e-05
7.2244886837324884e-06
-5.226435746408242e-07
-6.733805037129059e-06
-1.1858875666348467e-05
-1.4468976530679356e-05
-1.939115946925085e-05
-2.0543198104405747e-05
-2.121402491184199e-05
-2.4270240260193532e-05
-2.0313277957484388e-05
-1.798104710815096e-05
-1.7514842113541818e-05
-1.648647878482734e-05
-1.7155059140350204e-05
-1.5094789432623656e-05
-1.3949645108368713e-05
-1.124677061170587e-05
-1.063421353819649e-05
-1.2388131438001437e-05
-1.0727049584602355e-05
-9.091426761642651e-06
-6.0735056877092575e-06
-4.866594110808364e-06
-6.979752697588992e-06
-7.862020140692039e-06
-1.141872814969247e-05
-1.2482185013595881e-05
-9.539011159631627e-06
-6.597155049803405e-06
-2.119943815159786e-06
-2.120101896707638e-06
-2.806922680065327e-06
-3.5752622125073685e-06
-7.1816870104157715e-06
-6.168318805066519e-06
-6.170173037389759e-06
-5.060892306119058e-06
-4.279217137082014e-06
-4.663622462430794e-06
-2.972705431147915e-06
-3.1014503178994346e-06
1.2459292975108838e-07
4.0424889675705344e-06
2.6507176471568528e-06
2.3048713160278567e-06
-1.4867490563119645e-06
-4.2885428115368995e-06
-4.111198393275117e-06
-2.8874854933746974e-06
3.323626003748359e-06
5.6094504543580115e-06
5.033593936332181e-06
4.364620508567896e-06
3.046834081033012e-06
3.975727508986893e-06
4.269061150807829e-06
6.649666261182574e-06
8.441153795502032e-06
7.355539651143772e-06
9.778893456768856e-06
1.0032993941422319e-05
1.004854863140281e-05
9.93968109241905e-06
7.358863058470888e-06
6.666897832019458e-06
2.477624207131157e-06
-6.380315653586877e-08
-3.526197531300568e-06
-1.1424783622260293e-05
-1.700743609944766e-05
-2.2413829015022202e-05
-2.3217456771362777e-05
-2.1836289363363903e-05
-2.0584961305303295e-05
-1.605769415391478e-05
-1.978059862040027e-05
-2.3015095393930096e-05
-2.3579309754495625e-05
-2.3150678941874503e-05
-1.8928181475530437e-05
-1.9455559652215015e-05
-2.379177271905064e-05
-3.215284999669166e-05
-4.6269629706330306e-05
-5.690959648063654e-05
-6.782789756698548e-05
-7.408856032498079e-05
-7.08292118360987e-05
-5.181575590995635e-05
-1.0938228570012143e-05
4.4242632611712907e-05
0.00011464128834859366
0.00018857407991390573
0.00023713955818038812
0.00024465261742534494
0.0002020306100689595
0.00011877203371568612
2.3148731429500913e-05
-5.111896564358176e-05
-8.56000099247467e-05
-9.406955973645381e-05
-8.328484312869477e-05
-6.369676930262358e-05
-4.806626753861565e-05
-3.5466626172819815e-05
-2.809759820365798e-05
-2.3917696012176748e-05
-2.3849383921970002e-05
-2.5713792695114535e-05
-2.3584402526921622e-05
-2.280807984789135e-05
-2.0736766032314335e-05
-1.945697010796721e-05
-2.033064481565816e-05
-1.7915112607624906e-05
-1.7195128293678863e-05
-1.3520274933398468e-05
-8.285630826776469e-06
-7.125854949663335e-06
-5.1206019975325034e-06
-4.144813260609226e-06
-3.7655435107808444e-06
-4.8603540108160814e-06
-7.0381515797635075e-06
-5.681857999206841e-06
-7.318148220747389e-06
-8.002940433016192e-06
-7.591364180825622e-06
-9.53519332824726e-06
-9.90627592045712e-06
-1.2062243058608146e-05
-1.2381111730519478e-05
-9.746962348344823e-06
-8.193171140646882e-06
-1.924114258144982e-06
6.5455230924271746e-06
1.4923438754976814e-05
1.8311315272967477e-05
1.9896587389212073e-05
2.1779344194783334e-05
2.0274220560168033e-05
2.4070809217846545e-05
3.059308937736205e-05
3.466216065817207e-05
4.097124855206857e-05
4.5218101320188e-05
4.84278999124399e-05
4.6840944094128645e-05
4.5298378893221525e-05
4.841936930688462e-05
4.4143806235297234e-05
3.794462458017733e-05
3.148668702124269e-05
2.2257853288465412e-05
1.7933204560449667e-05
1.6347503162705834e-05
1.498223429052814e-05
1.1068206902109523e-05
1.5971129982972343e-06
-6.3205907281371765e-06
-1.4325165864192968e-05
-1.8266900099206396e-05
-1.8088560523210617e-05
-1.6242243361830333e-05
-1.1612555113060807e-05
-1.058269486975405e-05
-1.174759051991714e-05
-1.5487427447169466e-05
-2.2385135139302292e-05
-2.514559270139216e-05
-2.4591017108832602e-05
-2.0700445816146384e-05
-1.821985608785326e-05
-1.853433286669315e-05
-1.5652735498861148e-05
-1.6430595280780835e-05
-1.5875288681854727e-05
-1.2391758957619459e-05
-1.0865060858122888e-05
-8.462169660106156e-06
-7.73315798596741e-06
-5.08783864461293e-06
-2.081787499719212e-06
-3.830106720670301e-07
6.884100400839088e-06
9.281664802074374e-06
8.448314815723279e-06
6.478235150098044e-06
-4.56633301837428e-07
-3.605994720601302e-06
-6.040762400516542e-06
-5.939199297699815e-06
-4.989602871319221e-06
-7.771531727485126e-06
-8.846138427998085e-06
-1.318415729656408e-05
-1.4402488375253597e-05
-1.2920593803755764e-05
-1.0511151288028486e-05
-1.6357442973458092e-06
4.570195471842453e-06
8.014144782464427e-06
8.828897762214183e-06
6.740421326867363e-06
3.2907842069107573e-06
-2.1116383095431956e-06
-2.043119934569404e-06
4.245431455274229e-07
3.213657464584685e-06
9.454957648813433e-06
1.0981902505591279e-05
1.0438508923016343e-05
8.449898132312228e-06
5.305837760261056e-06
4.901417753444548e-06
3.4828811408260663e-06
4.5344198724706075e-06
5.63912186635207e-06
5.535223806418799e-06
7.691611472182558e-06
6.9091369141460746e-06
5.965035541066754e-06
3.520405016388395e-07
-1.0306696253792325e-05
-1.5121316096156079e-05
-1.9766255206832284e-05
-2.0296213108395023e-05
-1.5637905846688227e-05
-1.3137546545749501e-05
-1.2916657681216748e-05
-1.593122476606368e-05
-1.7973189471831574e-05
-2.0017420411022613e-05
-2.550576505200297e-05
-2.9428047355395393e-05
-3.311497886215875e-05
-3.591470363062399e-05
-3.9077144720067736e-05
-4.3168925628833676e-05
-4.92952671038438e-05
-5.9043295550509356e-05
-6.416183578039636e-05
-6.127589796278698e-05
-4.9417463060308364e-05
-1.944694196254204e-05
2.4763979467934405e-05
8.258654315795866e-05
0.00015115287499156693
0.0002143933422757982
0.0002492919570613594
0.00023117848826359477
0.00016484768951841033
6.743989359847546e-05
-2.72287690563644e-05
-8.738949327380396e-05
-0.0001127416284134597
-0.00010921057577206739
-8.962347919805325e-05
-6.87008994759708e-05
-4.702702267422865e-05
-3.293368325785195e-05
-2.2574850333967333e-05
-1.4117859166162816e-05
-1.1603474376897793e-05
-9.452115762087487e-06
-1.208967432830832e-05
-1.540061913374302e-05
-1.7488810954091605e-05
-2.066421700419596e-05
-1.9211453150091984e-05
-1.7630803370138892e-05
-1.5978600970356638e-05
-1.3919971081577387e-05
-1.239683302856065e-05
-8.716032539268781e-06
-8.91064581765022e-06
-9.685221641575481e-06
-9.974683678137808e-06
-1.1882030946708255e-05
-1.124021702025857e-05
-1.1401374877095805e-05
-9.371598252982949e-06
-5.451221227303904e-06
-3.859791206650698e-06
-2.216648908870411e-07
-1.1662936572065519e-06
-2.9734178497164976e-06
-3.018899178641732e-06
-2.9655701041519933e-06
1.3622067172036623e-06
4.0113907289196504e-06
8.3480267107916e-06
1.5047516228605673e-05
1.8349616993873497e-05
2.371624566421815e-05
2.8847727833181125e-05
3.1748555954891344e-05
3.174507537551108e-05
3.317827298587872e-05
3.974005710460915e-05
4.1407143555716175e-05
4.4587936883999646e-05
4.815292737703203e-05
4.6093029197891155e-05
4.6841607797887264e-05
4.546195839338907e-05
4.266723993850974e-05
3.905954008587287e-05
3.071783692121244e-05
2.5575582583314826e-05
1.918372748832553e-05
1.341761668527397e-05
9.396507493875106e-06
2.8620976308957324e-06
-8.07261812951765e-08
-7.051890293041652e-06
-1.2496828503572033e-05
-1.4493971605133993e-05
-2.2626889460752864e-05
-2.5225324463917786e-05
-2.5644786376233242e-05
-2.6012063187863532e-05
-2.3519377293723664e-05
-2.1696296357731626e-05
-1.814111647036043e-05
-1.9533986460373853e-05
-1.937522461048502e-05
-1.606229386652558e-05
-1.4663883291632374e-05
-1.1167714603743661e-05
-9.421697200195922e-06
-8.587834770423797e-06
-7.866270266276842e-06
-1.0170317636948312e-05
-9.063269828857301e-06
-1.0939166031675995e-05
-1.0947648888759431e-05
-7.912794728781591e-06
-6.120082275629102e-06
-3.611997215102747e-06
-3.4851320833695354e-06
-2.2041355123292306e-06
-5.349099865270546e-07
-5.400905820351909e-07
2.135253964752337e-06
2.5366203999510617e-06
3.6960659599571954e-07
-1.3985828104523534e-06
-4.036323559830635e-06
-2.267051741000614e-06
-4.9691949470798136e-06
-8.582803616263845e-06
-1.0213977361672733e-05
-1.2326699561526766e-05
-9.644507713346684e-06
-5.2477874419309956e-06
1.2501928949859575e-06
6.156238271159964e-06
5.28156965629023e-06
8.116553942727478e-06
6.476773080521525e-06
3.215663468836283e-06
4.4065725433029e-06
2.8458783845053404e-06
2.9938754551039892e-06
5.712092331577878e-06
9.71211818523443e-06
1.2354690511529043e-05
1.14626169533949e-05
1.2060940889568883e-05
8.234716972310707e-06
6.646857002579054e-06
7.749414635327412e-06
5.393318303958949e-06
8.207688949823932e-06
6.620043279781385e-06
3.19594141728885e-06
-4.188995603726653e-07
-7.443550089192286e-06
-1.1252963133756566e-05
-1.5417053475630382e-05
-1.732720846803204e-05
-1.5184225219400105e-05
-1.6606929023055272e-05
-1.555225077254363e-05
-1.6933774986682693e-05
-1.7221006316958665e-05
-1.5556042740172416e-05
-1.7777960465537035e-05
-1.970143085827658e-05
-2.681144997040974e-05
-3.3892236558585864e-05
-3.708756332798657e-05
-4.104997992726567e-05
-4.134931890575899e-05
-4.580993356739782e-05
-5.4890834633170016e-05
-6.448487692978233e-05
-7.006394247355274e-05
-5.791574534441679e-05
-3.100000168387851e-05
1.4635522234129894e-05
7.504746463382617e-05
0.00014256486838348792
0.0002108658872543856
0.00025088688022378847
0.0002444181325245154
0.00018763501572038876
8.888696021358555e-05
-9.523616711248906e-06
-7.94787890185944e-05
-0.00011141277838078167
-0.00010763469492758304
-8.869626589103063e-05
-6.784294225781196e-05
-5.239179358795809e-05
-3.933355498020319e-05
-2.9932032020951738e-05
-2.4966125749870116e-05
-1.688798170107475e-05
-1.1632134658157156e-05
-1.0360915894125355e-05
-8.951469681051094e-06
-1.0614508425987879e-05
-1.0478060517016274e-05
-1.5947109545777494e-05
-2.029856943863706e-05
-2.095491589670928e-05
-2.367530930769135e-05
-2.027580103458604e-05
-1.6892073233520932e-05
-1.468164469997646e-05
-1.04892184253913e-05
-9.000123384339531e-06
-4.853961684148089e-06
-5.259832732917857e-06
-7.986135187820764e-06
-1.0481678543783346e-05
-1.2863400797868962e-05
-1.0754996765172109e-05
-9.179759842936619e-06
-6.063538251055434e-06
-4.527556882294448e-06
-5.547307125652878e-06
-1.4395649259313359e-06
3.1725858775644156e-06
7.572708625502855e-06
1.1445885718330828e-05
1.2435069550065236e-05
1.6545720029625954e-05
1.8598207589093363e-05
2.215717574927112e-05
2.73783982720488e-05
3.04784081777143e-05
3.4915528544843255e-05
3.7530010956743354e-05
4.116955199151562e-05
4.588467629673687e-05
4.742705823446158e-05
5.088918032924994e-05
4.996071652385581e-05
4.5667068377497344e-05
4.122885263768694e-05
3.4570125023947185e-05
2.8627873177811125e-05
2.216566139168208e-05
1.7683920759736793e-05
1.3027366378537408e-05
5.041458962296019e-06
1.521716512797866e-07
-3.816080209162465e-06
-7.227499395412451e-06
-8.203913068882684e-06
-9.088952936053829e-06
-7.111544903182221e-06
-1.0356311122450279e-05
-1.3502426952527458e-05
-1.4851499429369142e-05
-2.0711602417122776e-05
-2.258398575349929e-05
-2.2157372939091147e-05
-2.1633853521052515e-05
-1.8865986305627302e-05
-1.9054680365115928e-05
-1.792249531717971e-05
-2.0796010403500986e-05
-2.2863243657411658e-05
-1.8909861580596043e-05
-1.4757588530756038e-05
-7.189577900135191e-06
-3.0289716050901916e-06
-9.685160193839693e-07
-3.952999350076425e-08
-4.737806762022956e-06
-5.232000546584459e-06
-5.361712226203963e-06
-6.119962449702143e-06
-4.269144142199366e-06
-4.817562796688435e-06
-2.100191636600357e-06
-1.967285470527713e-06
-2.35032973705529e-06
2.9485210006896523e-07
-1.2088412972843798e-06
-3.948617290916445e-07
1.1433917279646266e-07
2.9085623509672587e-07
1.5934433008624183e-06
-1.3860201875104394e-06
-2.9138888635316107e-06
-6.818000144903635e-06
-9.157824763406097e-06
-6.98973190083052e-06
-5.009495623653493e-06
-2.1605239908240037e-07
-7.98912083155301e-08
-3.7665324725821847e-07
2.9112646870999015e-07
-2.554053594394645e-06
-1.8846349689738418e-06
-1.9907611203962006e-06
-3.2631628528179135e-06
-2.187169457101845e-06
-1.5485101698686776e-06
2.6906933499049046e-06
1.6007038539100904e-06
8.863823381943803e-07
5.196034180698916e-06
7.379365513315861e-06
1.172194441778629e-05
1.3234847358489787e-05
1.1047156988297502e-05
1.0031417389200215e-05
7.349476959461754e-06
8.107709106752736e-06
5.582594951647479e-06
2.4211877303059737e-06
1.9779915874096332e-06
8.94969900855358e-07
6.770576419512508e-07
-2.6859304966819764e-06
-6.611859191707481e-06
-1.1840736704016308e-05
-2.0263560202238295e-05
-2.269671250587635e-05
-2.3648704939205345e-05
-2.2719967205375724e-05
-1.8872012390147574e-05
-1.612310802556749e-05
-1.2461489802717551e-05
-1.4425440440390958e-05
-1.7451671851631545e-05
-2.0865422698079783e-05
-2.828317946068637e-05
-3.3136280080725555e-05
-4.030597784776546e-05
-4.7018514635510655e-05
-5.355663751061002e-05
-6.33979988720057e-05
-6.89665267827877e-05
-7.226747277400136e-05
-6.40194281231743e-05
-3.5294315296141576e-05
9.472928297782346e-06
7.130810985245262e-05
0.0001418560214574427
0.00021014204406810677
0.0002538288901519081
0.00024896912987060205
0.00020081538997374082
0.00011588164119302746
2.0661001258304168e-05
-5.0124128733841644e-05
-8.947322544372582e-05
-9.664199262715556e-05
-8.780717587342224e-05
-7.000035304827179e-05
-5.1321056901088014e-05
-4.1590011335301824e-05
-3.399198374154366e-05
-3.215204702655683e-05
-3.144660638554342e-05
-2.5707010649966833e-05
-2.4037646142005542e-05
-2.0960815675152844e-05
-2.117941352253183e-05
-2.249135616239073e-05
-1.889099627305768e-05
-1.4550037235494528e-05
-8.875817627540528e-06
-9.526621568056726e-06
-1.114699301751898e-05
-1.1982260502918507e-05
-1.668644011942888e-05
-1.3187995307362144e-05
-9.341782060801052e-06
-1.039259694834982e-05
-1.0792864202358032e-05
-1.4099102145337383e-05
-1.5494792023673654e-05
-1.7220543213625206e-05
-1.485866636130595e-05
-1.0304968441232631e-05
-8.706619212262012e-06
-2.590205610886187e-06
2.0573219217112637e-07
1.923910076584434e-06
6.39081002873354e-06
7.950306837756216e-06
1.157179980282308e-05
1.1722331180408219e-05
1.2350635586244607e-05
1.69029446510649e-05
1.963340594102192e-05
2.5838879480488686e-05
2.921719993764782e-05
3.1846944864355464e-05
3.5630976810807624e-05
3.549501985844472e-05
4.0084794250105915e-05
4.3055365836153214e-05
4.320999443052642e-05
4.585706886928165e-05
4.511940448992391e-05
4.75700311426408e-05
4.605605141705382e-05
4.2339089304732624e-05
3.8848099450206064e-05
2.9622195029332943e-05
2.1590963115158956e-05
1.4363905506797892e-05
6.822709394782578e-06
8.427824695900199e-07
-5.119115144225361e-06
-8.447039590464556e-06
-1.2483326486290025e-05
-1.6173805704511324e-05
-1.8176770765876427e-05
-2.3192054186438327e-05
-2.554731167947466e-05
-2.6099331705609075e-05
-2.3360411717021634e-05
-1.8141500390811416e-05
-1.6666788440033997e-05
-1.5763719943606702e-05
-1.7494502344561624e-05
-1.9262555156274175e-05
-1.831847254152308e-05
-1.744815534721056e-05
-1.2766987708801025e-05
-1.2235531357873697e-05
-1.3339228530639957e-05
-1.1613190110892901e-05
-1.2386138280362502e-05
-9.046755508279603e-06
-5.591225487933116e-06
-4.082208192812686e-06
-8.882198017090559e-07
-1.0778024375213135e-06
-1.653854440064606e-06
-3.3988205814239336e-06
-6.974184373120806e-06
-7.22378354112152e-06
-8.361390769096033e-06
-5.993661716274801e-06
-2.9300314281499595e-06
1.1802146104855638e-06
7.230482538034266e-06
6.641858590228367e-06
6.196477443154436e-06
4.455583109574945e-06
8.882125257514417e-09
-3.845516971523466e-07
-2.8886395284644095e-06
-3.0042547223274596e-06
-4.278819460523664e-06
-5.16222809210376e-06
-3.3553341722836194e-06
-6.178543117130175e-06
-7.915468643204804e-06
-1.0620922012094525e-05
-1.3206750907102105e-05
-8.936785718560714e-06
-5.269616224268248e-06
-6.561828058693209e-08
4.161276933700719e-06
6.189108717080671e-06
7.930686479085125e-06
5.193874642372975e-06
4.007969437225256e-06
1.291212186060875e-06
2.205026817136968e-06
7.760332550788007e-06
7.807374174717552e-06
9.698799033230898e-06
1.0699725407903315e-05
8.174998470167338e-06
7.666929491279006e-06
7.101322012204037e-06
9.747550450356357e-06
9.960030070033099e-06
1.02668689123675e-05
1.1383993694380479e-05
5.5218367265297275e-06
1.5295925095415441e-06
-4.725536030036892e-06
-1.2090640609585535e-05
-1.4335462310555158e-05
-1.8233126183986315e-05
-1.638701706951906e-05
-1.5269417986019107e-05
-1.8200600038653647e-05
-1.7001927460569277e-05
-2.0026517347560002e-05
-2.308483163915298e-05
-2.3308720983550302e-05
-2.4075818089386303e-05
-2.7184412488168164e-05
-3.334273486643724e-05
-3.6418763102119556e-05
-4.067676576369195e-05
-4.852149004364037e-05
-5.611844545683198e-05
-6.650538944086293e-05
-7.260057947178211e-05
-7.038207513687667e-05
-5.103074926182671e-05
-1.3097301632569724e-05
3.600101018719215e-05
0.00010268991655948412
0.00017689461378722626
0.00023498341920458188
0.0002600847288931618
0.0002353262439100945
0.00016521055283647001
6.914180954709082e-05
-1.7317303502295545e-05
-7.236869276994184e-05
-9.944863870714471e-05
-9.835726280016388e-05
-8.429893864558835e-05
-6.763839769519109e-05
-4.8917200558662444e-05
-3.741647685728822e-05
-2.8287007523886132e-05
-2.1636974167904555e-05
-2.0710731178041897e-05
-1.890594626274833e-05
-2.0198345964672626e-05
-1.8035683581274498e-05
-1.730044914438622e-05
-1.8588192517654534e-05
-1.6177602503830713e-05
-1.7542203295306535e-05
-1.7470245040840382e-05
-1.763875678761906e-05
-1.8528998793954088e-05
-1.52321105701958e-05
-1.4006407695887901e-05
-1.0776206011087197e-05
-1.011155535479702e-05
-1.4003309502186312e-05
-1.4246842965803808e-05
-1.3642223223087058e-05
-1.0580676075733209e-05
-7.666837404940452e-06
-6.963972623452719e-06
-9.971392842089699e-06
-1.6085006791399792e-05
-1.4233711510769353e-05
-8.786363537183206e-06
-3.827359421393339e-06
3.4077204418281326e-06
4.406861421557551e-06
5.307790161168668e-06
6.437844660922565e-06
1.0585898394310789e-05
1.9872119821684464e-05
2.6291641631814855e-05
3.371959479636644e-05
3.9186799597246136e-05
3.9720728409520234e-05
4.042052296426846e-05
4.0381891949436977e-05
4.2689150859587244e-05
4.2239642482400086e-05
4.17926752902531e-05
4.499927194956399e-05
4.381979124445934e-05
4.42265528590724e-05
4.3668197236002015e-05
4.0739363441844034e-05
3.654422738463836e-05
2.6366505153418984e-05
2.0422621787474782e-05
1.408765569976822e-05
5.141130259289639e-06
5.773385396423691e-07
-7.283863567408844e-06
-1.1187859513484e-05
-1.3138360259290494e-05
-1.7274902063491027e-05
-1.8781876690354693e-05
-2.318319661753776e-05
-2.5014696632297273e-05
-2.5365763406171027e-05
-2.524404050063822e-05
-2.3701410270859924e-05
-2.4521083958006784e-05
-2.07740965265657e-05
-1.8591332150208473e-05
-1.80858269231976e-05
-1.290605825943203e-05
-1.295894264785602e-05
-1.1173811060416483e-05
-8.156401463565999e-06
-5.966038372662297e-06
-3.2806698300191783e-06
-6.140056768799695e-06
-5.3314003025661805e-06
-5.0309054699937406e-06
-7.93293912693116e-06
-6.26532352043796e-06
-8.419588880315132e-06
-8.372137131118507e-06
-7.06775495018519e-06
-3.3619996884226566e-06
3.819864048182353e-06
5.213631766309845e-06
6.600386257105129e-06
4.683361396473629e-06
-1.1950124303439225e-06
-2.8333997192930838e-06
-5.145343152435089e-06
-4.2999521951969655e-06
-4.143528428812715e-06
-4.916217051231797e-06
-1.162942453447613e-06
-1.5027181348159502e-06
-8.635757922093035e-07
-7.915500077615434e-07
-2.177437011141592e-06
-3.1699680107522e-06
-7.522150156091811e-06
-9.057804106760159e-06
-9.52262854525543e-06
-8.332888285167428e-06
-2.5265402996410558e-06
1.6828778370836517e-07
3.304118877167639e-06
3.4016245535894996e-06
1.0126217944161908e-06
1.4186394992066198e-07
-4.073367790624616e-06
-3.7420905414364825e-06
-5.983321784697182e-07
2.4617005465188413e-06
8.163201300703804e-06
1.1518853341385693e-05
1.4466267145962775e-05
1.4141458507310745e-05
1.3522727101644705e-05
1.5005143779944774e-05
9.3667705414191e-06
5.733639170557581e-06
2.842627452537272e-06
-8.077146844698291e-07
-8.696641771166469e-07
-2.1877622771171445e-06
-1.9482087054711883e-06
-2.8224695256540144e-06
-7.660128403585986e-06
-1.1614534116688446e-05
-1.9074100407578953e-05
-2.3318017383644474e-05
-2.48118738568337e-05
-2.537195155127847e-05
-2.3628198960068403e-05
-2.639580594632207e-05
-2.4447618670819793e-05
-2.0805167878279462e-05
-1.9694539105330477e-05
-1.7102094261645107e-05
-2.112811148435867e-05
-2.752588420662505e-05
-3.433385307971548e-05
-4.245462434937508e-05
-5.038632343712379e-05
-6.207162789451104e-05
-7.133472945497488e-05
-7.337333869372742e-05
-6.089875398629374e-05
-2.9666287844065664e-05
1.5021769570466859e-05
7.77945743948294e-05
0.00014893282684624864
0.00021476791567920372
0.0002597143568436877
0.00025419272918725255
0.0001993064992689142
0.00010508258753816335
3.5618182323560177e-06
-6.928942599415677e-05
-0.0001073385789140957
-0.00010938714268604599
-9.308983499067836e-05
-7.36687028961569e-05
-5.423316946462364e-05
-4.0960106673537666e-05
-3.0316609638703085e-05
-2.386596457881751e-05
-2.1052214947303582e-05
-1.5827878598884126e-05
-1.5262670729043748e-05
-1.5043725682062359e-05
-1.492818574888588e-05
-1.8004846594976698e-05
-2.121340907024205e-05
-2.4595093009338598e-05
-2.1820995470989146e-05
-1.684195473217187e-05
-1.4823154742771294e-05
-1.0098102904976258e-05
-1.005917687280089e-05
-9.564845413478906e-06
-9.179554410820856e-06
-9.641904910040466e-06
-1.05313991980438e-05
-1.4066976177673496e-05
-1.3100415912958852e-05
-1.178944046387187e-05
-9.773339741059317e-06
-3.797905492319842e-06
-2.1541451928897004e-06
-9.064619916898664e-07
-1.214589190112747e-06
-3.2144923807209125e-06
-4.726114752884314e-07
-1.0280429023623583e-06
-1.2257753496669466e-06
7.189149187070143e-07
5.660194005940866e-06
1.536751881303644e-05
2.3968244249772397e-05
3.232349615700514e-05
3.619633992002491e-05
3.694231418194249e-05
4.068719283623068e-05
4.217662149130774e-05
4.6990220539555594e-05
5.1621541672375315e-05
5.3033245762890147e-05
5.459094819570964e-05
4.9721676248282165e-05
4.506118688141214e-05
4.143888583030275e-05
3.5818023945921595e-05
3.3140540949716524e-05
2.8099111830215406e-05
2.1227526133316132e-05
1.2570974263326207e-05
4.514113015829935e-06
6.189414989421493e-07
-6.672591439382813e-06
-1.310494320705402e-05
-1.8479124037185102e-05
-2.2277523498814844e-05
-2.2189226967839204e-05
-2.3365930474028573e-05
-2.019425056687396e-05
-1.7092559460252232e-05
-1.7779753306967905e-05
-1.3479653773629252e-05
-1.3725656742735737e-05
-1.5717975372808723e-05
-1.7669366798145347e-05
-2.1509963630705897e-05
-2.2458960472704348e-05
-2.259715546415464e-05
-1.808655497370637e-05
-1.3167391273327667e-05
-1.1824853743291897e-05
-1.024546111239033e-05
-1.0975132909152308e-05
-8.918913067645917e-06
-6.707939576244826e-06
-4.533405217443942e-06
-1.7928812212630874e-08
-2.2167014321894385e-06
-2.7641370934361476e-06
-1.1673263315969962e-06
-2.402154905212228e-06
-2.002840062687028e-06
-4.40594931205851e-06
-6.9521040018116764e-06
-6.7189683932156186e-06
-7.339418573337753e-06
-4.515145974437473e-06
-4.500815748542664e-06
-4.797716997018142e-06
-4.648772119253408e-06
-5.39698328339e-06
-3.897129602137284e-06
-4.8419845484204416e-06
-4.967289328305924e-06
-4.8820513143255084e-06
-5.817457974899298e-06
-6.398281641395442e-06
-6.989003338730981e-06
-3.0880498229635123e-06
1.0983972060785163e-06
5.618836610210565e-06
1.1459529446256056e-05
8.270005423582916e-06
4.204724859846465e-06
2.1253612771943153e-06
1.8319873333894066e-06
4.908288474325673e-06
5.235343962795014e-06
9.653075608184736e-06
1.4103504099693964e-05
1.3225682550910278e-05
1.4486506131561327e-05
1.0569022151685203e-05
5.775527881723974e-06
4.147090635342465e-06
2.981135594382067e-06
2.952851673398982e-06
-1.468376581215125e-06
-3.0545837716999813e-06
-4.336267863891408e-06
-9.527072734272224e-06
-1.1137977594444237e-05
-1.374171029056015e-05
-1.609060444707211e-05
-1.910441505970084e-05
-2.1412630815120792e-05
-1.8502507657558454e-05
-2.0950986822754203e-05
-2.0399618676947284e-05
-1.8033650803772616e-05
-2.0835004931996082e-05
-2.427177668096192e-05
-3.0314699927203037e-05
-3.6684333394987334e-05
-4.4588832054159866e-05
-5.438901155230269e-05
-5.993058084641234e-05
-6.677318458514492e-05
-6.768353739516897e-05
-5.4996913320337626e-05
-2.7052350503709022e-05
1.7692633321075846e-05
7.498706332853544e-05
0.0001460184740835757
0.00021471198516564982
0.00025690738249295464
0.00025391283639919493
0.00019703086883282594
9.890002263546194e-05
-9.198117083997204e-06
-8.612799746288147e-05
-0.0001184306088930498
-0.00012036666743142632
-9.856340886926773e-05
-7.31483622757878e-05
-5.50645814314521e-05
-3.974169078446721e-05
-3.0697817010150175e-05
-2.2918640581792715e-05
-1.8931488455109502e-05
-1.9418244278313068e-05
-1.7297136309935013e-05
-2.002159095582101e-05
-1.9673406541187433e-05
-1.7095946532208472e-05
-1.6842520039972442e-05
-1.4670109692360711e-05
-1.477972671182215e-05
-1.3634917479521391e-05
-1.3261581727874727e-05
-1.5358507425844437e-05
-1.2657893819323363e-05
-1.1089471286140906e-05
-8.770939757596352e-06
-8.846135131079791e-06
-1.210227554793164e-05
-1.1942766263928206e-05
-1.4923220476248389e-05
-1.2568290969738882e-05
-7.775802714604652e-06
-5.908875891691423e-06
-1.2715728416878846e-06
-3.4492813938413747e-07
-4.030152354062011e-07
-7.56652354994003e-07
-3.3601792779336392e-06
-2.0275313659112726e-06
-3.310702823000611e-07
5.046512228545907e-06
1.1700624838795193e-05
1.670320881430598e-05
2.3480736842884653e-05
2.8014444865220867e-05
3.3992450255482254e-05
3.9490319750257186e-05
4.129611482994733e-05
4.4153097690013965e-05
4.507069553483234e-05
4.62101425569017e-05
4.635977575162542e-05
4.4950058736503706e-05
4.705060393916938e-05
4.4749326093551645e-05
4.125117050080007e-05
3.734631417273704e-05
3.192251722339279e-05
2.8843917618814885e-05
2.421730300739e-05
2.0420122098130378e-05
1.4680600202154892e-05
5.0980895593966125e-06
-9.065452672984975e-07
-9.982018923437863e-06
-1.6433029884410644e-05
-2.027570371865295e-05
-2.3643215001811768e-05
-2.1626331033530732e-05
-1.9580198284074868e-05
-1.4088312298099481e-05
-9.739528024965693e-06
-1.1233187194648053e-05
-1.1723315196832118e-05
-1.5347143175858946e-05
-2.0436916827293317e-05
-2.534413096100252e-05
-3.0080829446887947e-05
-2.934302028734237e-05
-2.8073404905626376e-05
-1.970399614492635e-05
-1.0174915644256544e-05
-6.026130677128094e-06
-4.8857442607186385e-06
-9.178074492410815e-06
-1.1218896929676703e-05
-1.038319709323332e-05
-8.923004997996031e-06
-4.7585371589775605e-06
-5.639319283545774e-06
-6.5885877802429604e-06
-4.957795511018048e-06
-4.952082292675186e-06
-2.5531726919325592e-06
-2.9692720886487223e-06
-2.7458817157821613e-06
-2.4167952119569236e-06
-5.3617295634467155e-06
-4.506300683715381e-06
-3.5050687188231677e-06
-1.4851983678454417e-06
-1.1494913110254856e-06
-4.022653570245893e-06
-4.379845222501899e-06
-7.500225194689847e-06
-4.934912908538536e-06
2.0170992911516805e-06
7.211584431843221e-06
9.948329534381628e-06
7.074834229570115e-06
3.775485708956694e-06
-4.252513008395908e-09
-1.1250265856688202e-06
5.093786796805944e-06
8.047863786941889e-06
1.030793595191426e-05
1.218928770185812e-05
1.0529827534355718e-05
1.101571035633242e-05
1.0002469707615091e-05
1.0519314514567668e-05
8.926018551846937e-06
2.6325716362407547e-06
-7.072130756569095e-07
-4.812604345261207e-06
-8.889092271147092e-06
-1.3114690432303178e-05
-1.6862201562162227e-05
-1.735658946699914e-05
-2.0365282921375183e-05
-1.834841782510921e-05
-1.4719148168751417e-05
-1.4491828324025846e-05
-1.3652363634264475e-05
-1.4209713356194698e-05
-1.636877544797244e-05
-1.8884858491219347e-05
-2.4259045630969922e-05
-2.9117075825979555e-05
-3.6988682722949306e-05
-4.174511792598423e-05
-4.243247252588844e-05
-4.695099283935633e-05
-5.365673536061877e-05
-6.340945219562855e-05
-6.7343581406476e-05
-6.157949445650956e-05
-4.4066488669614046e-05
-7.4464733756940404e-06
4.0346030402815813e-05
0.0001005660661235197
0.00017190567427860515
0.00023094458731520717
0.00025776200629934465
0.00022972171615265324
0.0001538496682087498
5.197115399369068e-05
-4.160051952339927e-05
-9.610589648900714e-05
-0.00011427046649714612
-0.00010255826316551975
-7.650909168432918e-05
-5.4219893911522377e-05
-3.603583098765739e-05
-2.6764707399706822e-05
-2.34178580740263e-05
-2.124394916336314e-05
-2.0538131934699777e-05
-1.8081630344113364e-05
-1.69591816643333e-05
-1.3921764320912189e-05
-1.4269040718772885e-05
-1.9317281953590282e-05
-1.8435124161442218e-05
-1.708173226688814e-05
-1.4008224979988881e-05
-9.899274743929709e-06
-9.80587361709695e-06
-8.724919325686642e-06
-1.1060051065214793e-05
-1.0443013536587387e-05
-8.683785836183233e-06
-8.488526020755671e-06
-6.642924688549101e-06
-8.418463892212458e-06
-1.0411501989437966e-05
-1.2045525750181696e-05
-1.4294262371095101e-05
-1.2334506777733623e-05
-1.2472216781134193e-05
-1.1416151039611577e-05
-6.847017687050538e-06
-4.1668512835713045e-06
1.92844601087927e-06
6.649750048381975e-06
1.116866070560718e-05
1.530633636548373e-05
1.6020890654999675e-05
1.8767203016523126e-05
2.096829814490775e-05
2.403090002189856e-05
2.8853920184701565e-05
3.480943564682093e-05
4.291923232813133e-05
4.6256339430783555e-05
5.03077716871303e-05
5.149300665152623e-05
4.83160395106097e-05
4.934612013585138e-05
4.72093793177919e-05
4.40414411286838e-05
4.096613668025384e-05
3.3789853773669165e-05
2.799634773964499e-05
1.9910216394691815e-05
1.3375063076637161e-05
8.518545655533671e-06
1.964250031960546e-06
-3.840394413145987e-06
-9.855982966655574e-06
-1.1250143643337651e-05
-1.3528789281735953e-05
-1.73671407992515e-05
-1.7913774797762017e-05
-2.1291562518399587e-05
-2.3867494917340082e-05
-2.300341111549642e-05
-2.3142119800922956e-05
-2.050068832204488e-05
-2.02695128450614e-05
-1.8270775626660907e-05
-1.4573161251973943e-05
-1.487911953290677e-05
-1.3611702115667867e-05
-1.4691928925003594e-05
-1.5047424881231564e-05
-1.4109442304288677e-05
-1.4602698854560003e-05
-1.309268628801874e-05
-1.3425510189790657e-05
-1.2191854693810456e-05
-7.112697801403556e-06
-3.27541448541524e-06
-1.4914686516931397e-06
-3.3265210959143587e-06
-2.9065119520055305e-06
-2.8265446303521458e-06
-4.605510696364945e-06
-2.824681871516077e-06
-3.1836333391765947e-06
-4.169209432802745e-06
-4.700502756804781e-06
-4.104255651782296e-06
-1.1857439403684111e-06
-2.861701716483367e-06
-2.7146595584781608e-06
-2.4091392560876557e-06
-6.7492082393982855e-06
-7.762893801555037e-06
-7.109309933639452e-06
-4.850037328196777e-06
-6.619929422413406e-07
3.015351069279859e-06
7.656140155631874e-06
6.657103369889228e-06
4.7910920670801715e-06
3.4818381209333893e-06
-7.006527198427648e-07
-1.1806056363639073e-06
5.618079512714758e-07
7.090710425927682e-06
1.3040507667483325e-05
1.3249051619368402e-05
1.4830690759026766e-05
1.1314320715882786e-05
5.987566567000613e-06
4.685034753038053e-06
1.6330383232343593e-06
1.2568544320856745e-06
3.297711828054162e-07
1.048763067501568e-06
2.815199650285649e-06
9.410387633579376e-07
-2.6691708399084746e-07
-5.6232186125271255e-06
-1.148476019352529e-05
-1.5174998736711132e-05
-1.9587015970046195e-05
-2.0509634850895964e-05
-2.4871831669770472e-05
-2.7946163868364238e-05
-2.6792284870680305e-05
-2.7443702435903106e-05
-2.564395418858112e-05
-2.5647792995187046e-05
-2.660589609604358e-05
-2.9424737533645384e-05
-3.663613051685388e-05
-4.12484376397515e-05
-5.0362452554963966e-05
-6.298366650980824e-05
-7.293907754046813e-05
-7.906721947392725e-05
-6.784020149552816e-05
-3.92551566505972e-05
8.252780844486551e-06
7.16226444978929e-05
0.00014166959704198234
0.0002124908799601144
0.000258337608840975
0.0002585008707569614
0.0002086025265839453
0.00011770819037337787
2.2141898796235182e-05
-5.136537441785549e-05
-8.809442260826472e-05
-9.149421759957477e-05
-8.120571629888218e-05
-6.611123154698362e-05
-5.361313145613167e-05
-4.121080513641573e-05
-3.273692556149399e-05
-2.9402479356122058e-05
-2.414225286884175e-05
-2.331790335574624e-05
-2.3321164974277053e-05
-1.9734678687655105e-05
-1.757018640091701e-05
-1.345315951084558e-05
-1.2591460574640223e-05
-1.0701411156333052e-05
-1.029321254009119e-05
-1.4567747314231383e-05
-1.656681820350059e-05
-2.060647864254861e-05
-2.3334492084359226e-05
-2.1735944869760715e-05
-1.8955754853777762e-05
-1.4258789065024757e-05
-1.3048176811025769e-05
-1.1382716024854744e-05
-7.066377179398842e-06
-4.792171580447757e-06
-3.377867187737138e-06
-6.891364819239243e-06
-9.908550396175997e-06
-1.1051413594032056e-05
-1.2452779969862604e-05
-7.218055884550267e-06
-2.7622976972452307e-06
-2.3827408313081833e-07
7.278204179783643e-06
1.2156053060152772e-05
1.6701872993962752e-05
1.9987547943856043e-05
2.2217089906462206e-05
2.5384976652276237e-05
2.729631597730986e-05
3.2200246209868055e-05
3.542847053950027e-05
3.889511015131575e-05
4.478791345263744e-05
4.7905814142268355e-05
5.0024049187413766e-05
4.725568203411967e-05
4.398323659415837e-05
4.262932276333231e-05
3.8986332413060154e-05
3.760966825439027e-05
3.424331032420014e-05
3.070087609557959e-05
2.5449387464959727e-05
1.5793501518146513e-05
8.212943555463426e-06
-2.5083612626985996e-06
-1.1980648423559614e-05
-1.5929064488773292e-05
-2.000186481154742e-05
-2.0497732464264118e-05
-2.291243345098337e-05
-2.5116314986917132e-05
-2.4708152125185734e-05
-2.4061169312972197e-05
-1.869305992840964e-05
-1.5228548306822631e-05
-1.3553157259593718e-05
-1.281111480011532e-05
-1.5879935858720273e-05
-1.6611483488304657e-05
-1.804433372853964e-05
-1.6727377555980638e-05
-1.117952751883422e-05
-1.0021496791523532e-05
-8.774986440585053e-06
-1.0766228626835073e-05
-1.0917329234416684e-05
-1.0867806338410446e-05
-1.219359194237768e-05
-8.903327568532404e-06
-7.510861166792893e-06
-5.257851682927139e-06
-8.478274367007543e-07
-1.4837821140645246e-06
-1.4698877066621208e-06
-4.5336211087487754e-06
-7.012143498741352e-06
-4.8984780391947425e-06
-6.14144420296725e-06
-3.458213768681162e-06
-2.629271421028534e-06
-5.347812191303092e-06
-5.255894052424992e-06
-4.75526587706554e-06
-2.5590173891032464e-06
-1.0122674325430125e-06
-1.2098081469957833e-07
1.787357973626058e-06
4.511327347245242e-07
9.976151886803564e-07
1.2172633319096349e-06
9.168342671728169e-07
3.290339236627915e-07
-3.2606895956632798e-06
-3.796052169491304e-06
-1.733100077672134e-06
2.1324322574400867e-06
7.621287466008653e-06
9.914000884236884e-06
1.2564971541451087e-05
1.1113726714029326e-05
1.0812150094352546e-05
1.2690519099578523e-05
1.140557549206278e-05
1.2821254870232224e-05
1.2599959973158548e-05
9.681982078291185e-06
8.129290392844268e-06
2.7805074296338717e-06
-1.7684249655758322e-06
-8.201287869269436e-06
-1.5859942266160942e-05
-2.1652235886904236e-05
-2.7401737668242276e-05
-2.711899037421972e-05
-2.511664990834106e-05
-1.9998360244244395e-05
-1.5284881840216258e-05
-1.8549000628809154e-05
-1.9438391916537512e-05
-2.1998838121817244e-05
-2.7265792937214428e-05
-2.7893629351183336e-05
-3.120963913261221e-05
-3.451046262625823e-05
-3.923550332274317e-05
-4.765557036989776e-05
-5.9628198698646884e-05
-7.260159287625356e-05
-7.784949787037476e-05
-7.417191596914563e-05
-5.351269908260292e-05
-1.2436740178145556e-05
4.162398971629955e-05
0.00011110950549664267
0.00018437594167153293
0.000244378249192323
0.00027014682450499095
0.0002410594323123405
0.00016700332520258598
6.627400381375992e-05
-2.2852888548641204e-05
-7.743200143295326e-05
-9.976239965681089e-05
-9.34948702138172e-05
-7.66018350759623e-05
-5.951270628656857e-05
-4.250357585533493e-05
-3.321861061067466e-05
-2.739100443704956e-05
-2.5946320761249808e-05
-2.537174344752202e-05
-2.3311620054755622e-05
-2.245290482960627e-05
-1.76413114445495e-05
-1.553127020770262e-05
-1.6643888272938057e-05
-1.7851534607871145e-05
-1.8903488069099694e-05
-1.706736412643295e-05
-1.7686306421182962e-05
-1.569327395145592e-05
-1.3746718082074949e-05
-1.5977464272509678e-05
-1.477015473483334e-05
-1.4459622775575554e-05
-1.4730639350091224e-05
-1.4355054133829981e-05
-1.3791765752557694e-05
-1.0678403612018883e-05
-7.888832442404237e-06
-5.992977207824879e-06
-4.510573432980891e-06
-5.602418070793647e-06
-4.179635936907289e-06
-4.546224431578594e-06
-2.5581967975085718e-06
2.7889871034858515e-07
4.929980832457659e-07
6.15533582504213e-06
1.0181049901802908e-05
1.4382714596195001e-05
2.0081348793610232e-05
2.2275177741448715e-05
2.6541191459727997e-05
2.7901772568839078e-05
3.178650598556487e-05
4.1302827241906925e-05
4.505236080376562e-05
4.9505913239045185e-05
5.110166563326857e-05
4.8944548609597405e-05
4.687522510948838e-05
4.22391726715432e-05
3.928922097884424e-05
3.585395876370967e-05
3.1392015102937876e-05
2.9417309804102842e-05
2.3895177037047688e-05
1.8953018752654316e-05
1.1975741983860644e-05
3.614669253693137e-06
-2.5308982571914385e-06
-9.483745259331045e-06
-1.1854999286242673e-05
-1.4481830191925837e-05
-1.857173185726424e-05
-2.0160039412076003e-05
-2.2231415073292737e-05
-2.1241337208266486e-05
-2.126916922406963e-05
-2.054236409776422e-05
-1.7646135745508218e-05
-2.1655215732607758e-05
-2.2797522660766845e-05
-2.292983543839e-05
-2.225755901008597e-05
-1.7751520886122307e-05
-1.3985580267217301e-05
-1.0081810273732117e-05
-1.034093304497219e-05
-9.26313884974661e-06
-6.3481494976258546e-06
-8.036283020373958e-06
-6.7419362039800035e-06
-6.252774596759991e-06
-6.1248890688148094e-06
-3.4536867019596684e-06
-3.772375407606887e-06
-3.997903547769965e-06
-4.984706663435645e-06
-7.616138759658497e-06
-7.187421147136774e-06
-6.495791808447393e-06
-5.013776046780549e-06
-4.743637475712603e-06
-2.7942238602918223e-06
2.750788098637713e-06
1.779397393875115e-06
1.0050207492895424e-06
-1.4576796161236416e-06
-5.289300190725044e-06
-5.945356065240048e-06
-7.420968984206411e-06
-4.210287499972765e-06
-1.401947201884468e-06
-3.2066702715383144e-07
3.766685551909177e-06
2.0886954530396906e-06
-3.2533591820538277e-07
-3.391903305782762e-06
-5.594660422048037e-06
-3.91566641155805e-06
-1.299927475884033e-06
6.191209138250997e-06
1.1792180146130704e-05
1.4776168256958044e-05
1.7920756761213852e-05
1.6201995038045425e-05
1.3443075374652835e-05
6.90336645448042e-06
1.4849169929220807e-06
2.310951515482884e-06
3.23830482784615e-06
6.917857660937443e-06
6.800269545692572e-06
2.064131535917113e-06
-3.8799707340331224e-06
-1.2094955195607326e-05
-1.614282916762022e-05
-1.905095132315182e-05
-2.066269172473767e-05
-1.8156076237119123e-05
-1.8562894013030018e-05
-1.7992445634718024e-05
-1.8270383009166835e-05
-2.0640249715597747e-05
-2.282079634596812e-05
-2.7716845693248615e-05
-3.0014365279384947e-05
-3.453995736890647e-05
-4.1102540592419246e-05
-4.681126841887817e-05
-5.582252850899749e-05
-6.548629937697115e-05
-7.590118150346825e-05
-7.752827082185831e-05
-6.19601618723209e-05
-2.909651658455914e-05
2.8507757178886095e-05
0.0001002407674945971
0.00017701986814699922
0.00024302884872895447
0.000266485652900883
0.00024118914467408104
0.00016832442321401686
6.69070076924072e-05
-2.171726771393878e-05
-8.044056096423446e-05
-0.00010247608975078037
-9.783232997051527e-05
-8.052566465721611e-05
-5.9818806562361715e-05
-4.541261557733378e-05
-3.3847388181129645e-05
-2.8619472857371875e-05
-2.8275649583520135e-05
-2.749607324403769e-05
-2.8226718654877914e-05
-2.7588629279762245e-05
-2.6326266720388958e-05
-2.2794753931520972e-05
-1.562368078111831e-05
-1.449409995757378e-05
-1.30736881374105e-05
-1.344265348279805e-05
-1.5121570697829156e-05
-1.1937995225252962e-05
-1.0314388077858894e-05
-7.341939635807648e-06
-6.621675140650041e-06
-9.412436099864863e-06
-8.864797962360171e-06
-1.145291474813348e-05
-1.2801603077150503e-05
-1.1960069457472855e-05
-1.117740487188712e-05
-9.032478146764333e-06
-8.225603210121335e-06
-4.266502628524904e-06
-3.118119934697461e-06
-3.955996135118767e-06
-1.3557908005168429e-06
1.3722086578127346e-07
3.174256789861829e-06
5.810870106870425e-06
9.5938553954511e-06
1.6541748721010663e-05
1.9947801717989933e-05
2.5801504307310097e-05
2.9750484827673063e-05
3.0622187125572964e-05
3.238852752929233e-05
3.3915592723587906e-05
3.8477300734029996e-05
4.263383249281105e-05
4.5244909244956943e-05
4.937052119657892e-05
4.9327164617807284e-05
4.866668723479961e-05
4.623576808171492e-05
4.0749229185621516e-05
3.522335072148053e-05
2.6832488629224827e-05
2.2021716347353504e-05
1.647226190470974e-05
7.086494747454708e-06
1.3148422226549883e-06
-5.226914993272658e-06
-1.0745881581897265e-05
-1.4430457213165937e-05
-1.6710288662125095e-05
-1.665807718609358e-05
-2.006813497246185e-05
-1.9709564583081374e-05
-2.0267603588308702e-05
-2.2152213603021664e-05
-2.0645578501898854e-05
-2.0455278956887923e-05
-1.9408204593673872e-05
-1.8765982133572834e-05
-1.7280691452015162e-05
-1.4063677951980935e-05
-1.4468851986748632e-05
-1.2187127026663802e-05
-1.1169215497375262e-05
-1.1682791637213086e-05
-9.82542564997857e-06
-9.538132928810228e-06
-6.441411699142918e-06
-8.02917196551789e-06
-1.136699387416229e-05
-9.640380426390038e-06
-9.37455814664645e-06
-7.443818219599052e-06
-5.506356387741107e-06
-6.233256783616525e-06
-5.53835235450606e-06
-6.621813724905223e-06
-4.323258224303572e-06
-2.4481921059305023e-06
-2.8496024242485873e-06
-2.6939817416860024e-06
-3.775568188757461e-06
-2.3279882839233323e-06
-5.532933755603153e-07
-4.192003757452767e-07
-1.3730997920902155e-06
-8.09338416729588e-06
-9.522307550469122e-06
-6.440926142659009e-06
-2.793730686789786e-07
8.500683918555296e-06
1.1196016487247107e-05
1.1758096945868601e-05
8.20130412648723e-06
5.319768035860761e-06
7.169950038132811e-06
6.9964770545993815e-06
8.250098574080766e-06
7.925798399810446e-06
5.578910588610597e-06
6.628585936141462e-06
5.535253308153187e-06
6.851024011211848e-06
7.826862599813467e-06
7.0697749947612465e-06
6.544631332872086e-06
1.6197487298086344e-06
-2.6682981797421235e-06
-6.521394197989139e-06
-9.67799394402391e-06
-9.605118350464181e-06
-1.3715255249735492e-05
-1.661159467403195e-05
-1.8517748458179994e-05
-2.097435424275318e-05
-2.0751646104599786e-05
-2.2880906612954277e-05
-2.187257337027404e-05
-2.31548226565792e-05
-2.713669113063588e-05
-2.531533334604319e-05
-2.5403187862593768e-05
-2.6838648182092584e-05
-3.0311853379316744e-05
-4.034953428799781e-05
-5.268058976071188e-05
-6.758694985364855e-05
-7.622448094934953e-05
-7.438369237888764e-05
-5.653293669638515e-05
-1.666809214384557e-05
3.83772021450568e-05
0.00010753195965662599
0.00018242855838934702
0.00024137828199854994
0.0002626717100042697
0.00022994038130264016
0.00015147068461374147
4.7883889465083485e-05
-4.134302622560426e-05
-9.488202897500742e-05
-0.00011597837550425538
-0.00010698260041408503
-8.674219077420275e-05
-6.617932672270399e-05
-4.527490625605424e-05
-3.101687747175674e-05
-2.0901643608794984e-05
-1.717770498999016e-05
-1.7094730878852715e-05
-1.6436697251265286e-05
-2.0332854660409794e-05
-2.1401793219411047e-05
-2.0594197962964245e-05
-2.1123943213297025e-05
-1.855953519225295e-05
-1.585096470080316e-05
-1.1042639471270377e-05
-8.530430307018833e-06
-8.240039733209414e-06
-7.033379404219886e-06
-1.1277752662408602e-05
-1.276218881685054e-05
-1.1660602126539743e-05
-1.200161483438933e-05
-1.0912377490512881e-05
-1.0274954945543868e-05
-6.87785706077193e-06
-7.0166682348826726e-06
-8.350310906735103e-06
-5.65623588499875e-06
-6.746384599409794e-06
-5.260505020032724e-06
-2.343744540667103e-06
-2.352887463530351e-06
1.0360675446463574e-06
1.7179559677060752e-06
6.2306280028678884e-06
1.1463572718639625e-05
1.5591042256346554e-05
2.47476610297781e-05
2.7874884665379795e-05
3.117491314696963e-05
3.4819064239854924e-05
3.659901835817436e-05
4.4479774430783436e-05
4.796754109293033e-05
5.1856798336302745e-05
5.3666754070036404e-05
4.912637035658918e-05
4.5572758153866744e-05
3.909131248747144e-05
3.6393983236848726e-05
3.2723290189551335e-05
2.7788498641712067e-05
2.698406058243563e-05
2.1439721706428827e-05
1.5656141556519287e-05
1.0099312703459873e-05
4.291295113034721e-06
1.7731707089296833e-06
-4.119474454000738e-06
-8.193845758341922e-06
-1.3273332740482147e-05
-2.0499469428614248e-05
-2.3359069302841817e-05
-2.639765466483368e-05
-2.772357123603797e-05
-2.5499399953332613e-05
-2.2599398675993143e-05
-1.8740153791441116e-05
-1.7011831857871584e-05
-1.5570034690881585e-05
-1.4212068094821007e-05
-1.3277169102821063e-05
-1.0597882180718443e-05
-1.1027751327219448e-05
-8.88821716671373e-06
-1.0225916355466325e-05
-1.4328475117508788e-05
-1.3703604281545267e-05
-1.5182321646989294e-05
-1.4130554347957514e-05
-1.2819304856748204e-05
-1.410324182415934e-05
-1.2670630212596734e-05
-1.3520987238280213e-05
-1.105103717691236e-05
-8.485060732255079e-06
-1.0067284165415913e-05
-9.37339501660972e-06
-8.985238650893734e-06
-7.228704589579138e-06
-3.2208843094849726e-06
-8.380591793866188e-07
2.100271274230181e-06
1.9647770841402235e-06
2.8272377221583156e-06
4.679980293076369e-06
5.319834315287153e-06
7.428113178775675e-06
7.053258343603375e-06
8.58595194586087e-06
6.2012771877562045e-06
-1.9659279359984794e-07
-8.203221000258054e-07
5.643004215016845e-07
4.6781276523688575e-06
1.0251754019918735e-05
1.2120609142129979e-05
1.5472123436666152e-05
1.3330382728327095e-05
1.2193206771371479e-05
1.2247023164491111e-05
7.613060745370603e-06
4.8641613261679595e-06
1.726648861222202e-06
-2.9880310421503964e-06
-7.277091810919956e-06
-1.0596512424854154e-05
-9.509200708635035e-06
-1.016362239170121e-05
-9.521833590042661e-06
-8.213442242777091e-06
-1.2348264135653153e-05
-1.643507334847527e-05
-2.0710460432837863e-05
-2.1329369928935193e-05
-2.2938519464332785e-05
-2.581127364464919e-05
-2.4177124487323454e-05
-2.5175579764891154e-05
-2.654627451192937e-05
-2.766221354022491e-05
-3.3485836695490434e-05
-4.155175309961123e-05
-5.395171450572889e-05
-6.232005898709758e-05
-6.888952822237115e-05
-7.090286391076006e-05
-5.424529916808751e-05
-2.1566814496054576e-05
2.9574891016181937e-05
9.625268722857072e-05
0.00017044041237568308
0.00023609633097976257
0.00026011066972841945
0.0002350210407371378
0.00016252708883257583
5.7233023028402386e-05
-3.686167212890723e-05
-9.547621800720663e-05
-0.00011572097082535038
-0.00010900791693302381
-9.042062072239787e-05
-6.755193027174755e-05
-5.107255645953046e-05
-4.0140736871308036e-05
-3.1730385501305136e-05
-2.7053502037688304e-05
-2.015377788211481e-05
-1.6254219417533022e-05
-1.344077787734932e-05
-1.2786007232534757e-05
-1.6988833749564947e-05
-1.8184483167260623e-05
-1.883577562011851e-05
-1.7842487636698934e-05
-1.6032212499794696e-05
-1.2878493009793601e-05
-7.909745761480735e-06
-8.89693836825245e-06
-9.415963859282783e-06
-8.91420404514065e-06
-1.2402107188336231e-05
-1.151462362258826e-05
-1.1402642144275887e-05
-9.938920754848368e-06
-8.524003419552173e-06
-8.742575744236092e-06
-6.109349214966642e-06
-4.542250508166035e-06
-2.8357565042824717e-06
-1.324463823948463e-06
8.418322750003426e-08
3.230087486372213e-06
4.6194872993510216e-07
1.0404005479358602e-07
7.99832150732982e-07
1.4674047292828618e-06
9.902878616685484e-06
1.9439194659298664e-05
2.8147017928858986e-05
3.46635564483222e-05
3.71087368193912e-05
3.889978438564867e-05
3.708665423118873e-05
3.96064996266432e-05
4.5647640149582e-05
5.013347640669963e-05
5.469759190646073e-05
5.336609439154927e-05
5.1580992476374377e-05
4.8232807330350624e-05
4.2254083950865606e-05
3.7994639683347486e-05
2.8606266255337687e-05
1.8195992993241816e-05
9.6781551519598e-06
3.0991879498287744e-06
-1.0522051638872654e-06
-5.978227648029133e-06
-9.697483676518459e-06
-1.561316270226598e-05
-2.126077032471585e-05
-2.3551980291358632e-05
-2.7879926221885398e-05
-2.9607190640490444e-05
-2.8978089346765046e-05
-2.592060423012299e-05
-1.6753679801695398e-05
-1.1158116933529527e-05
-5.051968628322356e-06
-1.2629148500309384e-06
-5.93521718883494e-06
-9.172652937650128e-06
-1.4039836571555497e-05
-1.615957040712601e-05
-1.7278266682296817e-05
-1.79329614411472e-05
-1.4937850778551365e-05
-1.4488152089597861e-05
-1.4721743866630277e-05
-1.5084468429904518e-05
-1.6870057152118534e-05
-1.5318961800403486e-05
-1.3668175881775824e-05
-8.682154771122441e-06
-4.976670993528387e-06
-3.590393305330508e-06
-4.399925046527642e-08
-8.012665375645156e-08
-2.154259789222124e-06
-3.841112174995942e-06
-5.560683632666041e-06
-3.729007744368573e-06
-3.3630681741669832e-06
-1.3137600376467162e-06
9.007858920995204e-07
-1.465274976908404e-07
2.2309883433990763e-06
4.654868973830162e-06
8.229629486322665e-06
6.586720360246545e-06
1.7798973885874148e-06
3.291394534699066e-06
4.325537076965702e-06
8.354404258170689e-06
1.4139614449959481e-05
1.3835114941684878e-05
1.2329052253789996e-05
9.99008108237831e-06
1.023449055992387e-05
9.87013623898747e-06
6.789598671730346e-06
7.112158073141472e-06
4.486426234961982e-06
1.8037696918327129e-06
-4.08935591167392e-07
-4.902919044980081e-06
-7.65332907803895e-06
-1.467236268126726e-05
-1.902316967061779e-05
-1.9833813610148354e-05
-2.4298013215684477e-05
-2.3301914836793003e-05
-2.0657455195305374e-05
-1.9023497600301198e-05
-1.7727067472605995e-05
-1.8916474402885797e-05
-2.195334627685952e-05
-2.7649682124319952e-05
-3.112305353170086e-05
-3.351911851723344e-05
-3.805918055377333e-05
-4.2747050486013904e-05
-5.411947364564185e-05
-6.616101694589815e-05
-7.457160671719976e-05
-7.083859230760936e-05
-4.4458406648573146e-05
-2.081522097796551e-06
5.833091279328073e-05
0.00013129832376534978
0.00020457726139966326
0.0002586530015946664
0.0002615463191091294
0.00021312846212140357
0.00012213437264563254
1.381108148734711e-05
-6.594954777483508e-05
-0.00010863873546895775
-0.00011662548530466665
-0.00010142908195120981
-8.126990712753468e-05
-6.0227827532344236e-05
-4.4808397831275215e-05
-3.388127180414813e-05
-2.5498842433080426e-05
-2.1471644174653193e-05
-1.8105240542354295e-05
-1.762737497301714e-05
-1.5231583745389798e-05
-1.2364122028429847e-05
-1.1546312578047946e-05
-7.794769260272005e-06
-7.541074978689721e-06
-1.0509732362606883e-05
-1.4587381997444027e-05
-1.876490199492764e-05
-1.948728998968363e-05
-2.0559355050409067e-05
-1.6823391604248172e-05
-1.1204012253074325e-05
-1.14536013597899e-05
-1.0439139543905185e-05
-1.1886778281677834e-05
-1.2880420683814009e-05
-1.3053934083018248e-05
-1.1882811293162376e-05
-6.5292858835164225e-06
-5.006366848192556e-06
-1.2002751077488938e-06
3.8622069382654445e-06
2.4761282020335784e-06
4.02286627831927e-06
3.4994306474800396e-06
4.314858415455092e-06
7.193968940555351e-06
7.4256699349462e-06
1.2897353371954523e-05
1.5677978922212787e-05
2.010536138641328e-05
2.9996935154485982e-05
3.9267644865503826e-05
4.6653547542518936e-05
4.7345662039788294e-05
4.661117446858043e-05
4.694476655231483e-05
4.571824842969363e-05
4.811391397652187e-05
4.903729671923429e-05
4.819847185899562e-05
4.459606100226665e-05
3.706429350813778e-05
3.066380975269567e-05
2.220211626990931e-05
1.5558143957150605e-05
1.2256473269189883e-05
6.616832536110451e-06
1.5817934126971522e-06
-6.043148857770575e-06
-1.325034105548184e-05
-1.9014228143987566e-05
-2.2594074607695802e-05
-1.959453095423669e-05
-1.9914412860089215e-05
-2.04640871288575e-05
-2.231321019507959e-05
-2.579861006779538e-05
-2.1838017744357785e-05
-1.9007561945727502e-05
-1.4478298339781759e-05
-8.065050735694967e-06
-9.79755111529812e-06
-1.0225180176348658e-05
-1.211289583125108e-05
-1.4282613562954793e-05
-1.4173089766700286e-05
-1.447308943625103e-05
-1.3409803784725227e-05
-1.3866382346350292e-05
-1.3427319174752483e-05
-1.2557368620491616e-05
-1.3652064694724686e-05
-1.036844531654424e-05
-8.96841726216735e-06
-4.850691880164959e-06
-9.277289905185171e-07
-2.1367653744164272e-06
-1.7215728007613507e-06
-4.052952135680243e-06
-5.840734957018867e-06
-6.363931674968626e-06
-7.055277649214986e-06
-4.691085280228435e-06
-5.78976300857903e-06
-4.285716897811653e-06
-2.0386983123898972e-07
-2.5060211896743567e-06
-7.593802706651331e-07
2.144168206541508e-06
4.62031817960451e-06
7.58784796062173e-06
6.706094382025185e-06
5.262538934402983e-06
2.8635750481953437e-06
2.833195765106211e-06
5.332539899427502e-06
7.689872802529862e-06
1.2200362448311353e-05
1.4937886646748666e-05
1.667101270186322e-05
1.5622703472217836e-05
8.455429394871317e-06
2.1093363216095895e-06
-6.1530583934654715e-06
-9.3245638481676e-06
-6.239196466140129e-06
-2.008035437484068e-06
1.5609952583872655e-06
-1.9735690557354246e-06
-6.898763444951328e-06
-1.0489550390957447e-05
-1.6275657344522187e-05
-1.7123763711879292e-05
-1.963297432894251e-05
-2.144475621435049e-05
-2.2566060579265468e-05
-2.4982474883472605e-05
-2.3223897244406544e-05
-2.527886192638107e-05
-2.7585689110765088e-05
-2.9022767023434426e-05
-3.5374049389247375e-05
-4.201516475177414e-05
-5.122460481743474e-05
-6.0323025536490604e-05
-6.896752057627964e-05
-7.391446905558041e-05
-6.459173783923688e-05
-4.457480389419288e-05
-8.664693837090454e-06
4.448860960337697e-05
0.00010996699165843893
0.0001834374397162719
0.00024050288237731365
0.0002617792583805567
0.00023346773070898053
0.00015472515855208258
5.833777970565279e-05
-2.703642371670867e-05
-8.113575091783787e-05
-9.932339304441484e-05
-9.608659644300133e-05
-7.98888385702412e-05
-6.38043537151134e-05
-4.889030560661922e-05
-3.5403868935190985e-05
-2.9596593719816155e-05
-2.2448916581652156e-05
-2.1075977144846547e-05
-2.3137103482895327e-05
-2.300536550592369e-05
-2.4167738047253806e-05
-2.0404304450494237e-05
-1.5998109688553086e-05
-1.4335717366975587e-05
-1.4926158485195629e-05
-1.6838402871144353e-05
-1.763743500760029e-05
-1.890938921178531e-05
-1.591405424505865e-05
-1.101084677657127e-05
-1.1326983212711639e-05
-8.500261969857092e-06
-9.197225892876304e-06
-1.019000649193913e-05
-9.844938460901176e-06
-1.1222807700050907e-05
-8.42404585910117e-06
-7.513089030908304e-06
-6.0784381048506475e-06
-4.219234881475131e-06
-6.871532036711869e-06
-6.6106725853387616e-06
-5.901976010136423e-06
-3.2653966286488867e-06
4.890830496151466e-08
1.897882384582772e-06
8.517119397311035e-06
1.3646731247263233e-05
2.036211947142874e-05
2.983362998065786e-05
3.465344656206071e-05
3.777299986040816e-05
3.8658038306493836e-05
3.987307263741968e-05
4.3477850283579755e-05
4.585125446965321e-05
4.952127562773967e-05
4.874661789244783e-05
4.770203923953886e-05
4.557944919270085e-05
4.0248207255899615e-05
3.7688942597924324e-05
3.248942027767043e-05
2.7169963971118705e-05
2.4175746659693687e-05
1.659969893808011e-05
9.618228034469212e-06
3.2584232485532993e-06
-4.02388121756303e-06
-1.039751583675752e-05
-1.6644177776470315e-05
-1.678469180887987e-05
-1.6758418382778473e-05
-1.5642978610230784e-05
-1.2226654462210718e-05
-1.3904924287544418e-05
-1.9584202277656004e-05
-2.6976853803262202e-05
-3.038584992509641e-05
-2.8581538856542466e-05
-2.5166078785332502e-05
-1.6113724484512204e-05
-1.2945004925768444e-05
-1.4664243963125045e-05
-1.319355561690827e-05
-1.475557610319811e-05
-1.2050846919464675e-05
-1.0480437993010128e-05
-1.1456419656497019e-05
-1.1298898186851147e-05
-1.3680248343916901e-05
-1.149919819454226e-05
-7.553374473445729e-06
-3.242665570724057e-06
-4.094753762728942e-07
-8.517840228705609e-07
2.0611325339814357e-06
1.3683577435585903e-06
-2.2446897673944477e-07
1.0962395435853978e-06
-1.6531129176655668e-06
-4.2015061580968904e-06
-6.430741507301718e-06
-7.698170293224393e-06
-7.5850065286431345e-06
-8.901728506316431e-06
-6.527249865939666e-06
-4.901749434793601e-06
-1.8032314414995199e-06
6.283032121245924e-07
-4.305758238842827e-08
1.8616418628880638e-06
4.5974718432262307e-07
2.27244242978486e-06
7.407902842260228e-06
8.939976680721884e-06
1.3922779771746718e-05
1.6469824061005056e-05
1.528956113361346e-05
1.2495851592575491e-05
7.103809195996291e-06
6.423894774343353e-06
4.43153004425767e-06
2.9049506338196807e-06
3.1560645084027783e-06
5.702531211682071e-07
-7.27451833881787e-07
-2.2854386543258443e-06
-3.295521537438617e-06
-4.254199325259833e-06
-7.934506072615477e-06
-9.330932243756251e-06
-1.0902327687745128e-05
-1.1767758905989467e-05
-1.1901965592642227e-05
-1.5280311288279336e-05
-1.836975860669554e-05
-2.3716080079339008e-05
-2.661849629248536e-05
-2.6418440597808512e-05
-2.9244828169794346e-05
-2.9726257196216466e-05
-3.292075501803993e-05
-3.7139881783332385e-05
-4.1106896219389455e-05
-4.788945892642005e-05
-5.509706903694678e-05
-6.751141444283348e-05
-7.917652141031795e-05
-8.037468739985343e-05
-6.851465656154687e-05
-3.6520324101729784e-05
1.123402114444616e-05
7.303249992673955e-05
0.00014923643436759448
0.00022166433342363234
0.000273590791607603
0.00027599039322012686
0.00022220807375106233
0.00012899109663067065
2.379343288794189e-05
-5.212209487126529e-05
-8.919615305558182e-05
-9.530900427989764e-05
-8.20692201273232e-05
-6.839509455858206e-05
-5.4956821827545355e-05
-4.394944829755332e-05
-3.7485184520846815e-05
-3.204603871154177e-05
-2.8931581880442536e-05
-2.308841288822805e-05
-2.0539880893011286e-05
-2.0068329376954352e-05
-1.8803356226726464e-05
-2.2052665656246973e-05
-2.2557300269454572e-05
-2.173344279299272e-05
-2.1357351670303615e-05
-1.7767658562206634e-05
-1.7386214040016057e-05
-1.4014105715887126e-05
-1.4908825278325821e-05
-1.7545980938393768e-05
-1.7593219126865733e-05
-1.854587725347301e-05
-1.4265539903135505e-05
-1.1561209703359054e-05
-1.019079087427599e-05
-8.409105987539078e-06
-1.3221934239027178e-05
-1.5150228364291252e-05
-1.4288812792528915e-05
-1.2447054075437336e-05
-5.535190666705603e-06
1.2660270840569865e-06
9.748622289862396e-06
1.4529242207572679e-05
1.630069397151601e-05
1.8032549974122958e-05
1.6607149575520452e-05
1.6829716514621396e-05
1.81795334697199e-05
2.3535207446911954e-05
3.105394881686152e-05
3.438736717953361e-05
3.934967338636852e-05
3.982114048994845e-05
4.0467574876856816e-05
4.561442426620488e-05
4.7418866415682714e-05
4.863094483198438e-05
4.758455162345854e-05
4.5121924017621495e-05
4.1755972063128866e-05
3.329183232381183e-05
2.7304423554141977e-05
1.8920131026334275e-05
1.0888470455938659e-05
6.044761505563656e-06
-1.4958654901420232e-06
-3.199098159711866e-06
-6.5138429476974125e-06
-8.38377962963932e-06
-6.585116466339969e-06
-9.289562797221151e-06
-1.2354799537206418e-05
-1.916263767043347e-05
-2.4822036266414216e-05
-2.5393619011992996e-05
-2.640208663251542e-05
-2.25834035063599e-05
-2.0482059710502654e-05
-2.0902680319068168e-05
-1.9229461372560763e-05
-1.8288933063104196e-05
-1.5260682573625672e-05
-1.3891280730149447e-05
-1.0829554071278835e-05
-7.245805079492129e-06
-8.217808215249534e-06
-7.028137872566731e-06
-6.720544149629859e-06
-7.419409428166546e-06
-7.174952315835981e-06
-7.787009963067248e-06
-3.7011564018030185e-06
-2.3838467200221203e-06
-2.866073486984533e-06
-1.438316019175545e-06
-4.769812278482277e-06
-7.727163847448537e-06
-9.991007914322836e-06
-9.326128406428325e-06
-5.679754451648478e-06
-5.702818555164413e-06
-2.122488012901158e-06
-1.654853747368179e-06
-3.6044238527210837e-06
-2.050263674391317e-06
-2.9605359372908424e-06
-2.990431198668375e-06
-5.539488427075412e-06
-7.723458338659839e-06
-9.10091142714009e-06
-1.4089637829783896e-05
-1.2967574605227128e-05
-8.330956291047187e-06
-2.892019153932779e-06
5.0990864224331744e-06
8.867584483596147e-06
1.2133002428527107e-05
9.197153644890932e-06
4.54719213394128e-06
2.8036070602865948e-06
-1.5006736475697835e-07
3.398577916868817e-06
5.609347340396198e-06
5.423297693596396e-06
7.869975149787933e-06
5.1140197001586785e-06
5.17730279625539e-06
5.3117587981432735e-06
4.218448850679124e-06
5.431960346413689e-06
5.211269240135152e-06
5.716565567581711e-06
1.9823334014290594e-06
-3.1622224696548074e-06
-6.853521199445822e-06
-1.340368868341102e-05
-1.4379697745425801e-05
-1.5791142345733533e-05
-2.010359486348534e-05
-2.037977645841238e-05
-2.1297973944456317e-05
-1.8549857657035318e-05
-1.8190653122474032e-05
-1.9938997013468907e-05
-2.0423878197561862e-05
-2.4703079361643177e-05
-2.691167560442409e-05
-2.9520305588448537e-05
-3.397004439875673e-05
-3.899116529737512e-05
-4.8358385640767665e-05
-5.736923293397922e-05
-6.746527014911408e-05
-7.499565947455267e-05
-6.996591991992318e-05
-5.206332951956938e-05
-1.413072914147051e-05
4.075004727610576e-05
0.00011043044429470683
0.00018730436448777255
0.0002456026628578911
0.0002705895903432065
0.00024430025308674885
0.0001663960480300375
6.459263681790617e-05
-2.8273298028125282e-05
-8.380018584830395e-05
-0.00010255660976099534
-9.348779650508732e-05
-7.199561241577612e-05
-5.528996274506426e-05
-3.9982553687423206e-05
-3.0219025518363196e-05
-2.6643061971753923e-05
-2.302601086512368e-05
-2.358951064707071e-05
-2.2672082138797123e-05
-2.1097709463901992e-05
-1.96209524006008e-05
-1.6057753498444072e-05
-1.8374654246144928e-05
-2.0454868376873492e-05
-2.3345348949987965e-05
-2.6743706143861345e-05
-2.512575372293213e-05
-2.5272402297105145e-05
-1.9748842873923422e-05
-1.317935613087684e-05
-1.0099050143708155e-05
-6.140820687505766e-06
-6.619710291033698e-06
-4.551990627987834e-06
-5.690099442290375e-06
-7.271660308560968e-06
-6.199265669692977e-06
-1.0192589400048746e-05
-1.1006706301941449e-05
-1.0793016883781092e-05
-1.206913083251493e-05
-8.923713210151618e-06
-6.035925764535932e-06
5.204386184232135e-07
5.536900857805449e-06
7.5659318667931075e-06
1.159991978738617e-05
1.2622722010746656e-05
1.485315908666962e-05
1.9206502599899977e-05
2.3936412958391884e-05
3.0718861466993985e-05
3.607878778666418e-05
4.254192305097604e-05
4.9171061107244896e-05
5.163257577578406e-05
5.2114483594323247e-05
4.999524395543631e-05
5.0009333278921986e-05
4.7072113602553145e-05
4.2570238406369754e-05
4.005671149798218e-05
3.336221703875708e-05
2.7326283486672764e-05
2.141005063549528e-05
1.2672010882397444e-05
5.8058843706021435e-06
-2.2689860088576097e-06
-4.836877735669987e-06
-5.956448717370222e-06
-9.692761125279503e-06
-1.0915182087956055e-05
-1.733384493718404e-05
-2.3282697497961635e-05
-2.585445798786168e-05
-2.665631996023876e-05
-2.2518732350818027e-05
-2.0894888450584403e-05
-1.782375858283558e-05
-1.4676363150556426e-05
-1.4621311891005462e-05
-1.1561102269297407e-05
-1.0500723760742403e-05
-9.567964980305987e-06
-1.0735962518992892e-05
-1.2254860507709964e-05
-1.1339777813645924e-05
-1.2646380582737038e-05
-1.176873723807148e-05
-1.197162259813922e-05
-1.408131862490336e-05
-1.2290931749703304e-05
-1.1309344074561523e-05
-7.114705056210369e-06
-3.8427830872933555e-06
-1.9971369056293042e-06
1.4156894394545816e-06
7.059092581584991e-07
9.738078006193973e-07
1.0009327411353297e-06
1.3920230230723973e-06
6.885470611450728e-07
-2.5769607532311056e-06
-1.653510992127849e-06
-1.1587027302084607e-06
-6.6382273189447e-07
1.975559314359998e-06
-7.084371418386581e-07
-2.6103105028596474e-06
-6.677120666154224e-06
-1.0048590183941997e-05
-1.0094091408063832e-05
-1.1727359435553808e-05
-7.935836038086563e-06
-2.955491311240621e-06
2.821308271450107e-07
4.028777482290025e-06
3.8076648252172163e-06
3.5034075835937983e-06
9.426366887055337e-07
1.0232850513602898e-06
4.421656853992317e-06
3.3717062137839093e-06
3.676667631680175e-06
1.7398218119524245e-06
-4.716128501058847e-07
1.8806247794600495e-06
3.235021154068818e-06
6.702632049382373e-06
1.0063216848266165e-05
8.686868000040704e-06
6.894856767303281e-06
2.5298058972111903e-06
2.18116349515185e-06
3.7415852602862287e-06
6.1238399098328955e-06
1.0662839258657186e-05
8.045067318107613e-06
3.6087078001401096e-06
-1.7100495597333065e-06
-9.926211589572631e-06
-1.3569004011060315e-05
-1.7867618623768067e-05
-1.9700974576153385e-05
-1.9995892159840878e-05
-2.0407785314091598e-05
-1.617833856926154e-05
-1.7217275512848573e-05
-1.8052197390261426e-05
-1.8081830887695105e-05
-2.0601693563548906e-05
-2.2748188598598063e-05
-2.8200957842727803e-05
-3.1797583176285116e-05
-3.470349082590474e-05
-4.0343270995890634e-05
-4.647283134318059e-05
-5.913683662583935e-05
-6.881302567762759e-05
-7.40864479666925e-05
-6.669238428003155e-05
-3.9600217689894635e-05
2.3744240706946584e-07
5.626060095664798e-05
0.00012517455030547353
0.00019628803067917033
0.0002508861829824127
0.0002620157421233671
0.00022383355906185898
0.0001382966538585606
3.3528561857565364e-05
-5.001037777674355e-05
-0.00010093950214695724
-0.00011463657835975027
-0.00010198792875826257
-8.07692475177646e-05
-6.0767438753828174e-05
-4.9901182819667156e-05
-4.0570199132616835e-05
-3.220777466594882e-05
-2.5852987732832844e-05
-1.6669590422679903e-05
-1.3270257738895452e-05
-1.1589361463393288e-05
-1.1355646620359039e-05
-1.2156157652043476e-05
-1.0380899539086386e-05
-1.1567187300443038e-05
-1.1809901081960561e-05
-1.3675881689323433e-05
-1.5672502797769994e-05
-1.3946206934178917e-05
-1.4652273421233986e-05
-1.414497904761447e-05
-1.6910355725485715e-05
-2.099184342796434e-05
-1.9991594172097393e-05
-1.924290705801468e-05
-1.4505000422104786e-05
-8.431014350662736e-06
-5.003145929549646e-06
-2.347990175621817e-06
-4.758011300509679e-06
-3.838010059098451e-06
-1.4201462477103632e-06
-1.4743592942068062e-06
2.328495270376152e-06
2.134580654455931e-06
3.72187946595659e-06
6.131195220859809e-06
8.609064025222324e-06
1.4438903860991559e-05
1.6789087680990633e-05
2.0871550020729046e-05
2.597381848090663e-05
2.926282911630551e-05
3.5195300768009474e-05
3.9767381565525284e-05
4.3212908735767996e-05
4.596694463998574e-05
4.747687898998265e-05
5.235022149463475e-05
5.2666221449726436e-05
5.1092315914047504e-05
4.8992970562267146e-05
4.4894408006257436e-05
4.126475084831327e-05
3.464966965793792e-05
2.7784927965512907e-05
1.7901683065701945e-05
5.844573081503768e-06
-1.5479561170650413e-06
-9.057823831426504e-06
-1.1276840439222724e-05
-1.2709470240679366e-05
-1.6380342401589587e-05
-1.8762811691885872e-05
-2.5729040146416082e-05
-2.947031151734336e-05
-3.0384239551040082e-05
-2.994948772538919e-05
-2.442321664375413e-05
-1.8982669189426815e-05
-1.2485487502544856e-05
-9.26656838373674e-06
-1.0590870886062476e-05
-9.958019461464573e-06
-1.4462154695138452e-05
-1.706405976165115e-05
-1.5099750839908666e-05
-1.254434204156496e-05
-9.775484556939773e-06
-1.1614611878485448e-05
-1.1619106373927934e-05
-1.3059482796506927e-05
-1.611975091009299e-05
-1.1669959974369704e-05
-1.1503969517434598e-05
-1.072941148549944e-05
-7.655213664747862e-06
-7.663469943963719e-06
-4.107645565909479e-06
-8.758528906582796e-07
3.6313428495304834e-06
6.985377979162877e-06
5.881268066332268e-06
4.815202260033402e-06
2.3529422605861328e-06
7.819112397555728e-07
-2.400928224233212e-06
-4.984208771929843e-06
-3.1288368518289644e-06
-5.577917022492329e-06
-5.253335700672324e-06
-5.13859987449905e-06
-8.953781616583001e-06
-9.629133671751333e-06
-1.0427372444610228e-05
-8.041802288971667e-06
-3.847979940019286e-06
-1.6057559264481824e-06
2.4613973437226377e-06
2.7277424692329078e-06
4.895590222986357e-06
7.440918182055611e-06
8.45349370592885e-06
1.209902768550819e-05
1.2252129124590283e-05
1.201753673285566e-05
1.0931848919426557e-05
8.08901211257762e-06
8.73784051691473e-06
9.651504797147936e-06
1.2358419269276055e-05
1.3233024844794272e-05
9.634039372485859e-06
8.059425340434245e-06
1.1704900657605322e-06
-6.829680273767735e-06
-1.2672777131683688e-05
-1.6838947601627297e-05
-1.7893182075567893e-05
-1.805834921242422e-05
-1.556975843186592e-05
-1.4427421490381676e-05
-1.6562518624141376e-05
-1.579585682520701e-05
-1.8144265766295575e-05
-1.8570022007224907e-05
-1.978883528863662e-05
-2.353973997060166e-05
-2.469946605287987e-05
-3.037676100348108e-05
-3.398009579314021e-05
-3.3922839008937444e-05
-4.066451265316573e-05
-4.728631057560051e-05
-5.632225975205074e-05
-6.544473757230662e-05
-6.92507106236917e-05
-6.232493188917942e-05
-3.413177955735591e-05
8.302176297547703e-06
6.913345697512341e-05
0.00014701836261110657
0.00022309859713232072
0.00027328254020630993
0.00027012954677729795
0.00021088314036887823
0.0001083903796939012
-3.2338377877749735e-06
-8.138800552615066e-05
-0.0001184305100423444
-0.00011858492547389687
-9.861790994136754e-05
-7.527049666578023e-05
-5.426526746532545e-05
-4.1665026401460636e-05
-3.156631970568924e-05
-2.4736748969189648e-05
-2.4021565309340076e-05
-2.167030680766402e-05
-2.170816793523045e-05
-2.1586107550319866e-05
-2.1387921094628837e-05
-2.3021569688808086e-05
-2.0752137288582162e-05
-2.1348876373394887e-05
-2.075658136391212e-05
-1.501193713693283e-05
-9.773368390142423e-06
-4.33707111824333e-06
-5.057000066699402e-06
-7.076090241753263e-06
-1.076586647741351e-05
-1.4711257790622767e-05
-1.1900538709141983e-05
-1.0946821987545263e-05
-1.0414656912871578e-05
-1.065325562876751e-05
-1.3136564916749194e-05
-1.4453124322244548e-05
-1.5770705147133413e-05
-1.2257557045813883e-05
-5.160210150734201e-06
1.166574577382562e-06
9.438842482722976e-06
1.3101960064432205e-05
1.4936508080154454e-05
1.6419291284819337e-05
1.5738493800654396e-05
2.0798518733045057e-05
2.2748654146198533e-05
2.5962962979519943e-05
3.251498065992564e-05
3.6122952735695435e-05
3.917565658184685e-05
3.970118592633298e-05
4.168032143070377e-05
4.380935649805906e-05
4.508113221390886e-05
4.808077113693798e-05
4.622014114374906e-05
4.388008591149628e-05
4.1769762390231335e-05
3.812077630982458e-05
3.380585383183643e-05
2.626511508196927e-05
2.1743286822584196e-05
1.6600586491222202e-05
8.046449295306957e-06
2.3182951736089308e-06
-5.922379727962834e-06
-1.2716708511106845e-05
-1.7606478593279462e-05
-2.1175583185595315e-05
-1.9016644387193082e-05
-2.125426402699304e-05
-2.064488552377952e-05
-1.7290827031501976e-05
-1.715396462032004e-05
-1.46276250916344e-05
-1.4530245493915572e-05
-1.4238215101158858e-05
-1.4515118152758077e-05
-1.877541700423535e-05
-1.8785182930969313e-05
-1.9727619246623362e-05
-1.9572736789541523e-05
-1.7457643139096035e-05
-1.7276423875500768e-05
-1.78073202619089e-05
-1.980143906621379e-05
-1.6043032360357756e-05
-9.974611998586624e-06
-6.206929072050116e-06
3.3499725304864114e-07
2.8728205734296353e-06
3.6850530023002648e-06
3.90640434488887e-06
1.6304193195537664e-06
1.8897430891229305e-06
-1.2696975772996666e-06
-2.1522993165490334e-06
-1.4505529861708055e-06
-2.361385099902691e-06
-7.82407710175903e-07
-3.6010005715070292e-06
-4.937653841352585e-06
-5.41005857712662e-06
-1.0056538314984209e-05
-8.533956417977606e-06
-7.427881485000398e-06
-5.3811468774256355e-06
-1.2250111467437819e-06
-5.381090204537031e-07
2.595888304313121e-07
-8.647433560327045e-07
2.4446820248158474e-06
6.197143420649809e-06
5.016325417273038e-06
5.9585561302810675e-06
2.3085908651410136e-06
-2.6845933120966947e-06
-4.417634784203983e-06
-6.516402152101364e-06
-2.827164848895336e-06
-1.622460104044876e-06
5.521054617929622e-07
6.449977490774472e-06
1.0891559554693231e-05
1.559117765737028e-05
1.7633577215292462e-05
1.7069719945084216e-05
1.466170937192146e-05
1.0993732189490402e-05
9.259931061933457e-06
1.1972571769547358e-06
-8.796109113973216e-06
-1.805070434102163e-05
-2.7349176605184766e-05
-2.9593263889182708e-05
-3.0003756705809792e-05
-2.6055522823753563e-05
-2.0804296525511745e-05
-2.004018199386337e-05
-1.6248454187461903e-05
-1.5353939772921876e-05
-1.6347179212061747e-05
-1.7572547392319393e-05
-2.143126232567738e-05
-2.3806001991033554e-05
-3.2452607911181985e-05
-4.1515627799526555e-05
-5.233605401144814e-05
-6.561105197988581e-05
-7.368324656908953e-05
-7.607464118564167e-05
-6.205868749020738e-05
-2.7893712172044616e-05
2.5698152626318915e-05
9.813886003939842e-05
0.000173999898834154
0.0002406459581152376
0.0002700126630656996
0.00024424654134236334
0.00017266545950178624
6.755227622079474e-05
-2.9407514659851586e-05
-8.902049586367866e-05
-0.00011333972815918969
-0.00010493470676919969
-8.296165651699994e-05
-6.137178820608824e-05
-4.497969206340713e-05
-3.565717702258553e-05
-2.6959206820720283e-05
-2.4964426415863272e-05
-2.4186873076814663e-05
-2.2199305874437414e-05
-2.1484617661826633e-05
-1.8400298358756118e-05
-1.7036105816714553e-05
-1.5232954297061951e-05
-1.4997010509887332e-05
-1.7294510030296806e-05
-1.4619144735661393e-05
-1.427685702992676e-05
-1.3673698447291827e-05
-1.0608464776851179e-05
-1.1505156749080925e-05
-1.1861047994443652e-05
-1.3460260390729673e-05
-1.248031190925758e-05
-9.00282390148277e-06
-8.745888862904394e-06
-6.316627832347876e-06
-6.9579928094753996e-06
-1.0509991568596888e-05
-1.1796345006587217e-05
-1.1002543317317759e-05
-6.404353996458667e-06
-4.9339528800373955e-06
-1.8301507225260139e-06
3.315175320039998e-06
5.06783402443034e-06
9.351794403755775e-06
1.170128859939723e-05
1.3494814481873618e-05
1.7050673420726525e-05
2.062723865492444e-05
2.8400527298799716e-05
3.345968451640147e-05
3.864277937282168e-05
4.385699372733143e-05
4.3340559329863027e-05
4.322768938891386e-05
4.193434892840742e-05
4.322855153304772e-05
4.520417456888026e-05
4.405068375490373e-05
4.391250274693448e-05
3.994447888544528e-05
3.463441152007363e-05
2.9591282498131477e-05
2.1290227493864222e-05
1.701944859178184e-05
1.0380476282989548e-05
4.915721717679844e-06
2.61758100350562e-06
-2.3267176629815367e-06
-5.055885822002892e-06
-1.1136312764392642e-05
-1.805387819331372e-05
-2.1313459342309216e-05
-2.4251896945770568e-05
-2.124014503124272e-05
-1.9039389826502884e-05
-1.9017893862383062e-05
-1.8852733546737e-05
-2.0399393463321758e-05
-1.9817294685253728e-05
-1.9056988776355865e-05
-1.6881603016827285e-05
-1.7323585780104622e-05
-2.1892373183618474e-05
-2.1139039745321497e-05
-1.7775188609903125e-05
-1.2486760169849731e-05
-5.769949609657488e-06
-3.839452404008625e-06
-3.0794695931035676e-06
-7.132385690056253e-06
-7.988126697000553e-06
-5.828810742514179e-06
-5.8032625247506076e-06
-3.3190780186487245e-06
-2.5477962708464474e-06
-1.64490154475061e-06
1.5482902426811052e-07
4.2535225475148764e-07
3.247593895139289e-06
1.8518956608204462e-06
-1.1914030437765177e-06
-1.8129837258129555e-06
-3.5900550301448675e-06
-2.8592336889232683e-06
-4.9137927362608025e-06
-6.76681003142221e-06
-8.403945798818313e-06
-1.295150036639825e-05
-9.163664287825668e-06
-3.015547974882793e-06
1.529349958673265e-06
5.737983030940086e-06
4.5895860694145085e-06
4.076800394159363e-06
3.944583681914082e-07
-1.9194327478544437e-06
-1.8974439512930985e-06
-3.7967585626574873e-06
-1.7122368376476516e-06
5.037913410887995e-07
3.683842862756137e-06
8.345943683707446e-06
8.926484838411852e-06
1.1743845334422076e-05
9.820404159199825e-06
8.396376586006227e-06
1.0316787665942684e-05
8.241611396897497e-06
8.890933941074763e-06
7.1989309162745485e-06
6.832139263224235e-06
7.774826997319906e-06
2.6200449383395608e-06
-1.5582103856104368e-06
-7.63625951094582e-06
-1.5210212779948051e-05
-1.8628492625794024e-05
-2.0717275845072436e-05
-1.9294385140256054e-05
-2.090038634605662e-05
-2.107007310314657e-05
-1.8646624141638313e-05
-2.1261120252802357e-05
-2.0981868090075295e-05
-2.192136560097424e-05
-2.6898003682163107e-05
-2.9530348001571838e-05
-3.346039505913723e-05
-3.6360420949677064e-05
-4.0901864849729463e-05
-4.640814034928553e-05
-5.2292198631676e-05
-6.380613558576442e-05
-7.253494987935483e-05
-7.277023087226553e-05
-5.4277694346183125e-05
-1.3992381354910322e-05
4.13207588962905e-05
0.00011329156484407576
0.00018729667505112957
0.00024494451452028443
0.00026834272972564577
0.00024006643349139267
0.00016553319898093832
6.399309324933711e-05
-2.618267802745322e-05
-8.462700270683854e-05
-0.00010898124378400098
-0.00010109464216156994
-7.98567245965387e-05
-5.526781251319335e-05
-3.465511906597385e-05
-2.6036582426058885e-05
-2.2849632046018087e-05
-2.5821154338245833e-05
-2.911599676735932e-05
-2.680551915545948e-05
-2.4103999010094412e-05
-2.029782638146571e-05
-1.8217749129689764e-05
-1.4282185816227866e-05
-1.3304164895089343e-05
-1.7118416906214406e-05
-1.669219085442819e-05
-1.8305185960798553e-05
-1.8814776410636114e-05
-1.691455889840654e-05
-1.6795451472262357e-05
-1.4689151100810705e-05
-1.597552608245678e-05
-1.4491836225261068e-05
