1.9989665418052027e-05
2.5629923527503706e-05
2.9390577196863887e-05
3.2308591300989065e-05
3.559596149216304e-05
3.64656199849378e-05
3.816016669588862e-05
3.7182971141191956e-05
3.7929510313006176e-05
3.832935624359379e-05
3.8310072511649196e-05
3.930204746893651e-05
3.609478852695247e-05
3.0123960357286705e-05
2.1634159850236756e-05
1.2450829387944395e-05
8.27017584015266e-06
8.608241159890895e-07
-3.3857043035823153e-06
-6.182079403060925e-06
-1.0961040686652268e-05
-1.1247387249113672e-05
-1.3035321956067492e-05
-1.2877827316515322e-05
-1.422038644705026e-05
-1.8286770512077055e-05
-1.7975452863083774e-05
-2.0401296239924704e-05
-2.414702373698674e-05
-2.485081824943336e-05
-2.289044300596288e-05
-1.708675551981287e-05
-1.3163406833882618e-05
-9.166716495201399e-06
-7.920106043002306e-06
-1.10844857772463e-05
-1.0850092508007947e-05
-1.085511712517473e-05
-1.1995028046385414e-05
-1.3110690645135037e-05
-1.3482896690675261e-05
-9.703416367301543e-06
-8.96261656180286e-06
-6.357283268698666e-06
-2.2418821572500747e-06
-2.7471373300613777e-06
-2.859201117644261e-06
-4.9348917627867195e-06
-4.251796042353817e-06
-3.39569066909462e-06
-4.681555253682745e-06
-1.5486236861761427e-06
-1.7574417370269657e-06
-2.934865278803045e-06
-2.1554396880674176e-06
-1.3247728247733903e-06
2.6430544721733895e-06
7.857910304664983e-07
-8.7111305901999e-07
-1.7539012446832203e-06
-4.729241027234821e-06
-1.7427859688723402e-06
3.812768056832283e-06
1.0564918966338155e-05
1.2913488887988933e-05
1.0651482625689823e-05
1.037000754422479e-05
4.971639498307923e-06
4.04739466830506e-06
7.804824235790875e-06
8.259454205017391e-06
9.998664609156549e-06
8.100258412468975e-06
8.569558758608764e-06
6.145690974790341e-06
-1.282328241813957e-06
-5.891488967790792e-06
-1.3171030957437324e-05
-1.7034554389283585e-05
-1.8143906402201537e-05
-2.0473482152283395e-05
-1.9480705361729633e-05
-2.252572147654064e-05
-2.3901169072360062e-05
-2.2944542990899208e-05
-2.2881627614879108e-05
-2.020014306935991e-05
-1.9919016267522238e-05
-1.9181788843525283e-05
-2.125305451272652e-05
-2.95311363061046e-05
-3.744720595477702e-05
-5.0052616359153035e-05
-6.250956914755079e-05
-7.204881876532454e-05
-7.749470529461178e-05
-7.293197739954849e-05
-5.4128867986946716e-05
-1.4752309596133273e-05
3.8349115300206904e-05
0.0001006985773415181
0.0001710089066477849
0.00022675534518157292
0.0002464370754751144
0.00022025678669024273
0.00014817684120771446
5.529083097144394e-05
-2.895935540436767e-05
-7.95202503809378e-05
-9.624765561966342e-05
-9.183351397723527e-05
-7.287412995538034e-05
-5.476815880456343e-05
-4.068970309845099e-05
-3.1199215186461515e-05
-2.7708785751201503e-05
-2.341221704682539e-05
-2.142553660178237e-05
-1.845359327035112e-05
-1.648816032684408e-05
-1.7337386964300094e-05
-1.662467445839866e-05
-1.8735645994638617e-05
-1.548056627598271e-05
-1.1714846834820491e-05
-1.2778292784787482e-05
-9.9584502208927e-06
-8.765116490394576e-06
-1.0143548195173935e-05
-1.1224131640119595e-05
-1.2656284866352507e-05
-1.2443347600310517e-05
-1.4281243863933923e-05
-1.396722433355535e-05
-1.298890890666371e-05
-1.51802665300238e-05
-1.541601619692301e-05
-1.4847440525045386e-05
-1.1548878831035836e-05
-6.742924711033993e-06
-3.173253332988679e-06
3.7609339642585837e-06
6.234429463347624e-06
9.0677517050608e-06
1.4857864300665824e-05
1.7147369874237484e-05
2.1007634984471224e-05
2.226966876150982e-05
2.2831356943697756e-05
2.4080607715859514e-05
2.519938232126151e-05
3.138925160328654e-05
3.715041992791157e-05
3.863911365442618e-05
3.9120134317727207e-05
3.75239861227783e-05
3.7314201051685814e-05
3.655680262681926e-05
3.6305384469415e-05
3.576726192022761e-05
3.2952827041299315e-05
3.1175197761967866e-05
2.564426694107169e-05
1.895173323873678e-05
1.2370437673325796e-05
4.494952349887171e-06
2.2235291226024856e-06
-2.1731597144025727e-06
-6.187362771470362e-06
-7.791339953655552e-06
-1.1805802955677791e-05
-1.3793633854675136e-05
-1.8264611924223573e-05
-2.0029129473186913e-05
-2.227281186151231e-05
-2.7051808899614116e-05
-2.49682842081711e-05
-2.3048799562275235e-05
-2.16618830677362e-05
-1.8499269344829372e-05
-1.612749298374183e-05
-1.2432038943188672e-05
-1.0651118373061763e-05
-7.55734328095059e-06
-7.48921752347087e-06
-1.123751297882336e-05
-1.0811049605763401e-05
-9.973039880151191e-06
-8.603016851793654e-06
-5.524504047116352e-06
-5.685558903678611e-06
-3.9332207961706445e-06
-4.496510314311308e-06
-4.3743425521824975e-06
-3.1720847459837387e-06
-6.477346630617831e-06
-7.985118656961276e-06
-1.0501656731776166e-05
-1.0428847417642828e-05
-7.150225485474948e-06
-7.50068159049988e-06
-3.014881087892718e-06
4.841876943828538e-08
1.3069586088931828e-06
4.876873788361991e-06
4.607543473866826e-06
5.717555893625104e-06
3.3119399063252786e-06
3.168325520164217e-06
5.515441898751305e-06
7.386864297131979e-06
1.179430500997114e-05
1.3551959455071483e-05
1.3192053245347779e-05
1.1879549731474981e-05
8.002038100585196e-06
6.997474997660902e-06
2.9331853852454515e-06
9.82685719463916e-07
9.760598800312437e-07
-9.935574212249776e-07
-1.0311415508112987e-06
-5.319819194937736e-06
-9.075565571947664e-06
-1.2145969321863959e-05
-1.8336325865675462e-05
-1.7649547771725338e-05
-1.5368181266239844e-05
-1.4623889853737637e-05
-1.3931277123901964e-05
-1.4340183327021805e-05
-1.4025652660620835e-05
-1.7636378458973923e-05
-1.8371557814589323e-05
-1.8153804944631702e-05
-2.2163486107729113e-05
-2.4588885480625322e-05
-3.010102255984748e-05
-3.8900180527434713e-05
-4.9889380477452505e-05
-6.432742270590097e-05
-7.35653481456211e-05
-7.786216264094037e-05
-6.862990073841502e-05
-3.960095193633606e-05
4.188759930912056e-06
6.555033178301528e-05
0.00013862226040828318
0.00021111013853669647
0.0002547465648490288
0.0002450266906635079
0.00018583193673293863
8.855233704707643e-05
-1.057015305150344e-05
-7.628821566640909e-05
-0.00010634616961624488
-0.00010417766799264427
-8.763032002434556e-05
-6.662841042270884e-05
-4.749942553416986e-05
-3.404427610576022e-05
-2.3477558784179564e-05
-1.8495061453904782e-05
-1.7813239423958294e-05
-1.8833015417385468e-05
-2.126634643673242e-05
-1.9328613745983603e-05
-1.8233577179671556e-05
-1.4389012051196914e-05
-1.0118038005657581e-05
-1.2400237721976737e-05
-1.3149794824585115e-05
-1.547356555420265e-05
-1.666175916170687e-05
-1.438742754089617e-05
-1.5204988642381068e-05
-1.1542066431502462e-05
-9.421101594853099e-06
-9.172221780318068e-06
-7.735004373898846e-06
-9.815774149046774e-06
-9.661313754349976e-06
-1.0653475555955083e-05
-9.570645431722369e-06
-6.696269281292189e-06
-6.098678682064929e-06
-2.932782138032053e-06
6.811608272982994e-07
5.7787461855696165e-06
1.0207585432908672e-05
1.2428835816535866e-05
1.8147170351312525e-05
1.9114010228804545e-05
2.0795068849110976e-05
2.523310394053624e-05
2.5412322258944187e-05
2.73112623290217e-05
2.8563755790855794e-05
2.9673475125946425e-05
3.2161898104732245e-05
3.16096929395826e-05
3.4844530205191404e-05
3.9288303696594085e-05
4.114621543749308e-05
4.0947612774289155e-05
4.001342529136309e-05
4.0066206167921337e-05
3.425216567620737e-05
3.03269546861884e-05
2.6349237543854542e-05
1.921843056607031e-05
1.571607646155826e-05
1.0889618749843066e-05
3.933184473225992e-06
-3.973597074491408e-06
-1.2957514286426886e-05
-1.5826786977868323e-05
-2.000459676310129e-05
-2.169720681877152e-05
-2.0382240677463415e-05
-2.2998602560164727e-05
-2.2399350541491003e-05
-2.115920796086357e-05
-2.039365159589579e-05
-1.954086002342592e-05
-2.1362985251016653e-05
-2.0918891834753595e-05
-1.936328857254921e-05
-1.5323632851504954e-05
-1.0375578312959988e-05
-7.995486384970718e-06
-3.846547883767926e-06
-5.9058385772914335e-06
-7.397930744446057e-06
-6.922539796505589e-06
-9.213197017743369e-06
-9.959294459349621e-06
-1.2592935775046499e-05
-1.5255942230396613e-05
-1.675843145676481e-05
-1.6852196608851955e-05
-1.125688493175403e-05
-9.457725923311955e-06
-7.656428635982593e-06
-3.935048368930438e-06
-2.2547634443981224e-06
2.6490340587770334e-07
-2.8029950271957205e-07
1.70328371495998e-06
3.111525245458324e-06
1.0280770652570936e-06
4.662978142278007e-06
5.14241759219658e-06
5.269895780202205e-06
8.850492918099917e-06
9.72907258756095e-06
1.3921987886078568e-05
1.2388504728733096e-05
1.0128681140031404e-05
1.0483014364126575e-05
8.827304270653258e-06
9.976724982152518e-06
1.1221130819194514e-05
1.016873244452654e-05
9.137422921412508e-06
5.360281477351236e-06
3.5617092066786427e-06
-1.60332950827069e-06
-7.801688639119675e-06
-1.2552017267353222e-05
-1.8507011475321633e-05
-1.9559686336378945e-05
-2.042857016704147e-05
-1.9717968712029688e-05
-1.73732474308963e-05
-1.9991661474705325e-05
-1.8980152390213334e-05
-1.8133574485545978e-05
-2.04257065092861e-05
-2.3943967846662417e-05
-2.884395132696227e-05
-3.0617214179073926e-05
-3.8518251585628605e-05
-4.701672418150338e-05
-5.6282006312358135e-05
-7.021399051154731e-05
-7.593665549165962e-05
-6.917251698723703e-05
-4.438147254859359e-05
-3.097117144079675e-06
5.097798367614814e-05
0.00011920775676799167
0.0001860248041793966
0.00023743458467606615
0.00024787043793139674
0.00020528145574871814
0.000120213974582839
1.3896460131945787e-05
-6.662216208042082e-05
-0.00010778388167409503
-0.00011583243701807078
-9.412898771188338e-05
-6.754852518042753e-05
-4.806377000932116e-05
-3.375172457253939e-05
-2.629763804407048e-05
-2.080373002399938e-05
-2.121009737265922e-05
-1.9778271735049202e-05
-1.6353289936432702e-05
-1.5596904290759994e-05
-1.1657258482955513e-05
-1.1440194555234484e-05
-1.3262555967230583e-05
-1.391544469697692e-05
-1.6133581880239944e-05
-1.264980500081947e-05
-1.2537392024114524e-05
-1.2144172671924025e-05
-8.553356394713774e-06
-7.622301779974805e-06
-5.4391039725487644e-06
-5.08580279756643e-06
-3.893084738137986e-06
-4.719909270534117e-06
-8.819304582630139e-06
-9.433146317405772e-06
-1.2964522966285585e-05
-1.5194131492535234e-05
-1.3103533206049178e-05
-1.0537838875279704e-05
-3.1099822876967664e-06
3.382009481356363e-07
2.919784492405597e-06
6.476040255165572e-06
7.655289891772554e-06
1.3204463414240308e-05
1.9407063746257336e-05
2.503245593743486e-05
3.0244358185882447e-05
3.19529193575363e-05
3.513422979040115e-05
3.4641144907254784e-05
3.5048972677032e-05
3.890696979169661e-05
4.095880706245225e-05
4.444664557468059e-05
4.3022203158216143e-05
4.146914568536886e-05
4.1594107415221515e-05
3.8117464214337815e-05
3.7252217737204774e-05
3.36218462848592e-05
2.624267852979756e-05
1.9529725193478953e-05
1.1112034883353772e-05
7.051504383071006e-06
8.645685056762886e-08
-6.395389334556967e-06
-8.710529414202028e-06
-1.267953518890863e-05
-1.3741170562298066e-05
-1.5202707288608508e-05
-1.8129647173736885e-05
-1.8513481563786627e-05
-1.9883394770658924e-05
-1.9374351040823967e-05
-2.1648966026077687e-05
-2.477166299286182e-05
-2.701119029779875e-05
-2.7666417906857532e-05
-2.3821413606128772e-05
-2.0105536236769694e-05
-1.4508346282582352e-05
-9.612355484023283e-06
-1.0614018549404136e-05
-1.0104861758009065e-05
-1.0533378429045115e-05
-1.077881103128675e-05
-8.919651861560851e-06
-7.036344243260828e-06
-2.5829857008830004e-06
-4.046609433316917e-06
-6.12912037922797e-06
-5.4834043226037466e-06
-7.583796445942426e-06
-5.9594337358248595e-06
-3.743562615454721e-06
-4.012610020254215e-06
-4.339884583259845e-06
-7.192684790879866e-06
-6.1654204728256445e-06
-1.539330412470008e-06
3.3888503025991668e-06
9.595110043392197e-06
1.1183205685938447e-05
1.0474085286205082e-05
8.962280617197393e-06
1.0254558844735584e-05
1.1054340347982361e-05
6.2468766373058315e-06
5.274653176456923e-06
4.762749881592754e-06
5.68415435964198e-06
9.603887122011656e-06
1.0661747580797964e-05
1.1918658799459081e-05
8.91324305030139e-06
7.316064795759303e-06
5.567266498474055e-06
-6.914524988133053e-07
-4.733711591597967e-06
-1.0349616843541298e-05
-1.5039794220683689e-05
-1.5742204254820535e-05
-1.794496688489744e-05
-1.809587490697595e-05
-2.085316532429715e-05
-2.307008338675587e-05
-2.3306539787881775e-05
-2.3620380318334355e-05
-2.076443979603937e-05
-1.968742395774825e-05
-1.972027240526586e-05
-2.169922913708433e-05
-3.0245050822941266e-05
-3.903428398643882e-05
-5.309481514359504e-05
-6.951569594093598e-05
-8.206255438381049e-05
-8.820767578754385e-05
-7.349728900862829e-05
-4.0286435705638723e-05
9.947331136572757e-06
7.566180067897221e-05
0.00014580232146954586
0.00021329772602030062
0.0002534065320105583
0.00024546757634880123
0.0001876630050787753
9.159284104498511e-05
-4.929687008825567e-06
-7.350002084649532e-05
-0.00010270720150629131
-0.0001006589396297386
-8.456874166995476e-05
-6.309026872486356e-05
-4.803238584827341e-05
-3.556881495114794e-05
-2.581881727792279e-05
-2.338635795240407e-05
-1.9525749621607247e-05
-1.729572937847479e-05
-1.6813352146982652e-05
-1.488959816242641e-05
-1.650027218147443e-05
-1.5918776455237094e-05
-1.7459033244904276e-05
-1.7788343313895894e-05
-1.488697847662479e-05
-1.3815261013405689e-05
-1.167194506024316e-05
-1.2288549214645172e-05
-1.3081869497000298e-05
-1.3060153037258715e-05
-1.4434463821544341e-05
-1.0613247070523357e-05
-7.335028612942551e-06
-4.711958467851218e-06
-1.7028302181643085e-06
-2.167254820051312e-06
-3.134368967039336e-06
-6.7069897795590805e-06
-9.249520530829614e-06
-8.442421631116304e-06
-8.205829146845645e-06
-1.0501598239898158e-06
5.309902121553023e-06
8.077455390775867e-06
1.1956454159189889e-05
1.469261576403369e-05
2.1768268766209076e-05
2.6673373781704868e-05
3.0511335012306517e-05
3.428731537269414e-05
3.477264948514858e-05
3.6917463319241506e-05
3.8641183323306905e-05
3.948287337607326e-05
4.1285441341187834e-05
4.1328082659219945e-05
4.415646702682352e-05
4.2857536072915536e-05
3.863157564865105e-05
3.7151968115267664e-05
3.1895679228455265e-05
2.6289963898307178e-05
1.8776354409055784e-05
1.2574112531638093e-05
7.168946012825472e-06
3.877335643664992e-07
-2.141140043931955e-06
-6.415886730337661e-06
-1.202082853524189e-05
-1.4523560992074636e-05
-1.737248447852835e-05
-1.5788924656590098e-05
-1.667281651407393e-05
-1.6695187412096857e-05
-1.5603696454036253e-05
-1.793027496432842e-05
-1.7264536893435434e-05
-1.6541725187835254e-05
-1.4900120447691734e-05
-1.3700192255328147e-05
-1.8321177151392476e-05
-2.0582539434599312e-05
-2.3081252720658085e-05
-2.0606995406069473e-05
-1.3158510114408273e-05
-9.092634797980281e-06
-5.817033127186733e-06
-7.239130582092912e-06
-8.750232495913224e-06
-7.2787768203852465e-06
-8.311318822507019e-06
-5.4650945457979105e-06
-2.397069465587265e-06
-2.4626363597235468e-06
-2.732384928094689e-06
-6.427233984140912e-06
-6.604859663639218e-06
-8.311734802646242e-06
-7.49083022810737e-06
-1.4388683098331967e-06
-8.225977126130601e-07
-8.739208965380385e-07
-2.345943244108639e-06
-2.6605314928929147e-06
6.233436806724058e-07
3.0110845159470045e-06
8.71855991135817e-06
1.0204708303263033e-05
9.457397027290426e-06
1.1148186160880869e-05
1.0903769862125046e-05
1.2417540972364804e-05
1.1993748103122925e-05
1.26634505477341e-05
1.379773726739586e-05
9.746463831561414e-06
7.493254429391527e-06
5.054294490491884e-06
9.578857884662284e-07
-2.7818682042379805e-06
-7.084698381731869e-06
-8.934281595429638e-06
-1.4355803273247147e-05
-1.836127756860151e-05
-2.0449871328764857e-05
-2.4505868395863217e-05
-2.4439396838715766e-05
-2.3798257814178214e-05
-2.3790262503098347e-05
-2.238771145357532e-05
-2.4537755450637633e-05
-2.4642612459047086e-05
-2.546819195003991e-05
-2.7370165696538606e-05
-2.9202072482803487e-05
-3.578817734251061e-05
-4.2528082076387363e-05
-5.3374499373148865e-05
-6.623759423973752e-05
-7.640053462409924e-05
-8.401481392183996e-05
-7.596208041604768e-05
-4.802458403219134e-05
-1.210627488035243e-06
6.042650738891098e-05
0.00013206017007405535
0.00020764041181564608
0.0002568112506651232
0.00026238947089041176
0.00022025912301160133
0.00013377879315612518
3.544895264440129e-05
-4.316427879302864e-05
-8.573687603075086e-05
-9.554549518497879e-05
-8.539039771449097e-05
-6.325579158783512e-05
-4.6692377168255916e-05
-3.563405931572561e-05
-2.709782711463049e-05
-2.3171267116595118e-05
-1.939650957183403e-05
-1.9572728092498437e-05
-1.990457570855142e-05
-2.032115230576892e-05
-2.5432664358504553e-05
-2.6739022359834053e-05
-2.7682727534283913e-05
-2.5845658171874675e-05
-2.0195020795199525e-05
-1.5481653235838166e-05
-8.222050496442534e-06
-7.5229787057651265e-06
-9.067471410162398e-06
-8.114108482004667e-06
-9.920227796555992e-06
-9.25840606669226e-06
-8.523680776306719e-06
-7.835835504010902e-06
-5.906694696022896e-06
-6.712343179060554e-06
-4.852373592711956e-06
-6.601028189834324e-06
-8.921830612962367e-06
-7.940160287489562e-06
-7.904611436515552e-06
-4.435847586137243e-06
-2.621071132580255e-06
-2.915394361480139e-07
6.56151462408161e-06
1.0938210493804945e-05
2.0455814251363336e-05
2.8925151525527326e-05
3.225461529154927e-05
3.420218627070426e-05
3.229927943948496e-05
3.569648271195547e-05
3.640446169583811e-05
3.595930246547141e-05
4.069638987402868e-05
4.068562412840038e-05
4.1146507328448934e-05
4.223492840083054e-05
3.973602889573158e-05
3.656556435771563e-05
2.9562920133230364e-05
2.573684884055183e-05
2.0752657576394995e-05
1.7136134204065456e-05
1.6030453593884886e-05
8.860065463522915e-06
1.7647262211539783e-06
-8.972248849659081e-06
-1.6954884813458193e-05
-1.9970369351085537e-05
-2.5496972341443325e-05
-2.357302184918808e-05
-2.0702720007648168e-05
-1.7780828045488306e-05
-1.2952130191479228e-05
-1.3640206077525363e-05
-1.2972014815204602e-05
-1.6377613746954012e-05
-1.9614697919223545e-05
-1.7822586698912346e-05
-1.7587296269994113e-05
-1.600635164322739e-05
-1.4703802605708916e-05
-1.4880030335007177e-05
-1.4304374701623601e-05
-1.7370971818309044e-05
-1.600595936679383e-05
-1.4596314144910139e-05
-1.247201385012886e-05
-5.666520166869304e-06
-3.6659878333011875e-07
4.536196286153427e-06
4.782445557793835e-06
3.271529180892685e-06
1.5864023907852243e-06
-3.2399480573985784e-06
-3.6430034242584952e-06
-4.682428482283285e-06
-5.574180818257446e-06
-6.312519644779968e-06
-1.0268600362906e-05
-8.33362668117843e-06
-8.963087566371541e-06
-8.655307055960293e-06
-2.8162274929854902e-06
4.997810947315884e-07
5.422359947715449e-06
8.56004044180736e-06
8.331111644110933e-06
8.620310836704448e-06
5.502392980361037e-06
5.96570538391461e-06
6.793976297103654e-06
8.4906183133171e-06
1.159121006821806e-05
1.172961822248908e-05
1.4137175867290352e-05
1.0444078100135812e-05
5.842613290951704e-06
3.4255450600539916e-06
-1.1954518868151354e-06
-1.1547267604328226e-06
-1.3534543086279882e-07
-1.5826182107048226e-06
-3.815303387000313e-06
-7.621851750627684e-06
-8.690816002854262e-06
-1.2960923811533576e-05
-1.822044339405693e-05
-1.934903212941208e-05
-2.2922860011931334e-05
-2.3004451122687897e-05
-2.0728650270029902e-05
-2.244420147690107e-05
-2.273141046771343e-05
-2.380627461207041e-05
-2.3798363145033363e-05
-2.6148897745770228e-05
-2.9841742843927932e-05
-3.517791509466406e-05
-4.426694584935831e-05
-5.454037028584935e-05
-6.69704501774504e-05
-7.786103515172726e-05
-8.297456668060477e-05
-7.865938533768713e-05
-5.3778567519202625e-05
-9.774396801276453e-06
5.1877791463539324e-05
0.0001275823252058217
0.000203926356618922
0.00026255212532078076
0.00027452041638298397
0.00023533714420409524
0.00015350283831594425
5.2382419994501106e-05
-2.8808829370063904e-05
-7.743077986788194e-05
-9.415270233148476e-05
-8.832715298012772e-05
-7.648043151675665e-05
-6.0056330596580665e-05
-4.612662286263003e-05
-3.7872037410124904e-05
-3.060874587390572e-05
-2.821318042833809e-05
-2.744178362945604e-05
-2.4839893740136176e-05
-2.1553038038746308e-05
-1.8478405365840445e-05
-1.9494634329930705e-05
-1.8697368659559288e-05
-1.829000308362083e-05
-1.804349443546016e-05
-1.5894880277755874e-05
-1.582199740823853e-05
-1.2015923346098134e-05
-1.2829813272219326e-05
-1.486109636061883e-05
-1.2836901362334174e-05
-1.4169832468269306e-05
-1.1888114670455252e-05
-9.201932925861911e-06
-9.794871687063278e-06
-9.027963301377895e-06
-1.0935685111235216e-05
-8.38590381135873e-06
-5.7982231282949215e-06
-3.6690829574581585e-06
-1.7786665580388217e-06
-3.937695908007299e-06
-1.6583892374910647e-06
2.9274639814502734e-06
1.0253007530991454e-05
1.824681936568595e-05
1.9849245404657267e-05
2.2069957594794687e-05
2.469344934752371e-05
2.8103304885007674e-05
3.446122428840681e-05
3.633674208458615e-05
3.866528220441978e-05
3.7490338456791505e-05
3.6171264412132587e-05
4.020648617597544e-05
4.118514561923803e-05
4.2959831091593514e-05
4.156295744905947e-05
3.654154636478779e-05
3.231193818464817e-05
2.3936854347539338e-05
2.101186049685566e-05
1.68846150927493e-05
1.0788935185246373e-05
8.91396405222622e-06
1.2273706033738563e-06
-5.054470534560096e-06
-1.1079661987878353e-05
-1.559868184131119e-05
-1.5258508881288435e-05
-1.717256998290395e-05
-1.716096568316061e-05
-1.6824361125600262e-05
-1.9845326562517585e-05
-2.1442522950110288e-05
-2.250501125899973e-05
-1.9803172733645624e-05
-1.848291890382825e-05
-1.8130939679394942e-05
-1.532657609004673e-05
-1.603731186605728e-05
-1.7177692768655106e-05
-1.7572840135926526e-05
-1.609959406323469e-05
-1.2091000769487437e-05
-1.0392039712314727e-05
-6.725453431499773e-06
-5.8392907931192894e-06
-7.309019395052019e-06
-5.267936785458005e-06
-5.354984182304179e-06
-4.20474805196136e-06
-2.8746189286721346e-06
-1.8624527342581132e-06
1.9607589933912095e-06
2.257669279970287e-06
2.9023489673818403e-06
9.086566024052445e-07
-2.678828423086088e-06
-2.6559964680927806e-06
-5.603055285519076e-06
-2.6959162369166734e-06
-7.226408342830837e-07
-1.829495204219711e-06
-2.3558646944366046e-07
-2.716848769068747e-06
-4.668065344048955e-06
-6.130253723313217e-06
-6.354560071031301e-06
-3.6458574186326587e-06
-2.7672850251292402e-06
7.92563355389575e-07
1.5413671121677908e-06
9.580561481925542e-07
3.4101809092135227e-06
3.691355118462525e-06
6.590904433778633e-06
1.0565293791842123e-05
1.274898181691242e-05
1.298088579915202e-05
9.978150899314642e-06
8.411939745656127e-06
7.3100351869470614e-06
8.042774879868375e-06
9.39222854867694e-06
7.455043487425428e-06
8.838913856834552e-06
7.342718163272366e-06
3.804986761224427e-06
7.4506817782094e-07
-6.33667417559991e-06
-1.2397708076150593e-05
-1.740776326641935e-05
-2.1489195717094844e-05
-2.2361922503932874e-05
-2.5548225949023617e-05
-2.4427196251508576e-05
-2.3931740372518107e-05
-2.4147079216163547e-05
-2.1695628333873174e-05
-2.348123689444037e-05
-2.248679743388493e-05
-2.2530738306159037e-05
-2.6004635117260477e-05
-2.8030659848354844e-05
-3.54655402361459e-05
-4.408500467434351e-05
-5.300830019905334e-05
-6.494199425333136e-05
-7.455600558614606e-05
-7.873733466112753e-05
-6.567676297208891e-05
-3.2340419750198635e-05
1.8993764058450324e-05
8.875206538050406e-05
0.00016499463896479938
0.00023043313888138073
0.00026369371431655964
0.0002477976774457602
0.00018636506877101056
9.126066532871846e-05
2.86085878542508e-07
-6.282795919787532e-05
-9.444215965004332e-05
-9.555586711940123e-05
-8.098553837498912e-05
-6.17523131722919e-05
-4.80799369597662e-05
-3.7954067693135585e-05
-3.025871671979985e-05
-2.8940078550476755e-05
-2.4279789101910865e-05
-2.0493668387189246e-05
-1.971993100369218e-05
-1.7034400059401378e-05
-1.792656689758587e-05
-1.615752319139574e-05
-1.677750645967535e-05
-2.1601079481570196e-05
-2.1753659552814497e-05
-2.2534030108545267e-05
-2.178972874844476e-05
-1.7259813546388614e-05
-1.3338538735752081e-05
-9.3910958298693e-06
-9.131390299899067e-06
-7.2390286618428945e-06
-6.845516111297911e-06
-6.468779588431062e-06
-4.64836637092958e-06
-6.556557536896435e-06
-6.956357765375287e-06
-7.483777494599053e-06
-5.9430212786537595e-06
-8.390273364966561e-07
7.776687880323152e-07
4.2784402580764436e-06
7.474326025658229e-06
8.3999087223674e-06
9.13117861500723e-06
1.1672642585836002e-07
3.13723342060257e-06
2.7441136353445472e-05
4.082075872702262e-05
4.383849744726831e-05
4.3236731073648116e-05
4.218771141495381e-05
4.3620078656658734e-05
4.0853019129372115e-05
4.1861626641548355e-05
4.1381620292213483e-05
3.768387381342109e-05
3.8128676862925204e-05
3.671286162898468e-05
3.413650506445265e-05
2.906432388272151e-05
2.142235700830497e-05
1.4987513850428513e-05
5.683038466486323e-06
1.0272077588524553e-07
-3.5611151361081284e-06
-8.75266175626166e-06
-1.2258073240900558e-05
-1.854594103178897e-05
-2.093460199148467e-05
-2.2314657542210625e-05
-2.4679918226411246e-05
-2.0068381786586542e-05
-1.712565193656701e-05
-1.6406848828864895e-05
-1.4686989402434847e-05
-1.5012087430932297e-05
-1.402476925704832e-05
-1.696962436881222e-05
-1.78993092276869e-05
-1.749754090951683e-05
-1.794990930648055e-05
-1.5031142766019912e-05
-1.2248520704360999e-05
-8.532494121027412e-06
-5.832551437379152e-06
-5.608133278656169e-06
-5.0250472440893645e-06
-1.0146457384507812e-05
-1.3222495226727915e-05
-1.15387672963152e-05
-9.494761570749688e-06
-5.116624095080624e-06
-2.0885592562081e-06
2.0291803934924246e-06
2.220474300429487e-06
6.381703769875458e-07
2.111563844664488e-06
2.4883044602574955e-06
4.086516582901822e-06
5.818302042825962e-06
5.024838230838213e-06
4.154705038672546e-06
-1.9215792690374656e-07
-1.4740174378857773e-06
-2.5207610860888963e-06
-4.352504788585065e-06
-3.5299756291351514e-06
-6.130884173671802e-06
-7.437119165842887e-06
-9.94959088984615e-06
-1.2153890850186144e-05
-8.76478441114159e-06
-8.59915348883078e-06
-5.037123059992155e-06
1.1811364970526483e-06
2.539091724429454e-06
4.080532733041764e-06
4.996067616502842e-06
7.184296350715158e-06
7.935757821542211e-06
8.1416155808256e-06
1.0834446413809928e-05
9.068991232652479e-06
8.53397619948737e-06
8.073970036548417e-06
4.641605414690275e-06
5.604505815881566e-06
3.2764887691882905e-06
4.3482629052959965e-06
6.039580455308169e-06
4.380829750516568e-06
5.424640107776213e-06
3.6466261690293322e-06
2.103628219174425e-06
-1.1700464597197424e-06
-6.5095630930045445e-06
-9.03472721347498e-06
-1.5045159045712353e-05
-1.640912000766548e-05
-1.7816893318922666e-05
-2.1317601408554765e-05
-2.1973559853449842e-05
-2.641069858100309e-05
-2.6227464957173652e-05
-2.5709439114507404e-05
-2.911352333967443e-05
-2.815738753270125e-05
-2.8868932133718772e-05
-3.081741886035161e-05
-3.2815494762417075e-05
-3.9722374935990956e-05
-4.947012212141999e-05
-6.231079657936789e-05
-7.150018950596859e-05
-7.122062237385762e-05
-5.5768345134765696e-05
-2.1045494577265345e-05
2.9268452919950505e-05
9.382706099358984e-05
0.00016306324727111132
0.00022223303108148684
0.0002521951964808977
0.0002294588271070097
0.0001645031076691339
7.487120996074736e-05
-1.2102315622541937e-05
-6.68379308308431e-05
-9.212881940356965e-05
-9.012349426029687e-05
-7.605309519931325e-05
-6.0338858418163e-05
-4.334214298751249e-05
-3.324048077502084e-05
-2.7749485013828235e-05
-2.4649918486829847e-05
-2.4796815409899864e-05
-2.3453302219422767e-05
-2.5255115190248034e-05
-2.399847625156326e-05
-2.2515029058922664e-05
-2.191880486179798e-05
-1.922030980949785e-05
-1.9817188672277553e-05
-1.9327176232764032e-05
-1.9208516107482865e-05
-1.985543667615275e-05
-1.5225311130961927e-05
-1.3401925457401376e-05
-1.0689547423226031e-05
-6.406340332887339e-06
-4.90188620005938e-06
-3.7657628126908094e-06
-4.054108387663291e-06
-1.6355053276129183e-06
-3.118542224456178e-06
-6.0232266037019144e-06
-5.479553976783791e-06
-8.8261106157006e-06
-8.401780007716297e-06
-4.768700023305428e-06
-9.33545607040287e-07
6.657209667082498e-06
1.0074418980821065e-05
1.4514915278596163e-05
1.7150708060853503e-05
1.633719193705474e-05
1.8345452190260403e-05
1.9602748977831652e-05
2.4031675252444984e-05
3.077926623973326e-05
3.614749192593081e-05
4.258869489603967e-05
4.2466443915145646e-05
4.309082072495585e-05
4.598058069404942e-05
4.389710363739141e-05
4.3634430198835616e-05
4.101723038729688e-05
3.743736141359477e-05
3.290471721584254e-05
2.680113146880103e-05
2.328714271015997e-05
1.772977924474617e-05
1.3072923593426822e-05
8.939376698435808e-06
2.1538932060138904e-06
-2.8513392749118793e-06
-8.671719058384042e-06
-1.0712307528137899e-05
-1.3046332412613992e-05
-1.634027410091221e-05
-1.713124356683693e-05
-2.173740818989245e-05
-2.465661407313746e-05
-2.477697159974923e-05
-2.5411211538539646e-05
-2.1343652520044998e-05
-1.9840567745177395e-05
-1.7469098679612216e-05
-1.3844103875726432e-05
-1.4157708164930227e-05
-1.3454452812311501e-05
-1.4589750549021119e-05
-1.3555699752032524e-05
-1.262222139075675e-05
-1.2383895580114768e-05
-8.18741000330192e-06
-5.390637340951798e-06
-2.660490906691848e-06
-1.0934084002656164e-06
-8.976434173746384e-07
2.672226173672243e-07
-2.9073507903376594e-06
-2.3320545210481214e-06
-1.6579801922489423e-06
-3.53316517021085e-06
-1.7815875139604032e-06
-2.704537394038198e-06
-3.3467070466031146e-06
-4.977362380031991e-06
-7.040580783268524e-06
-4.02827623702251e-06
-4.125429029500083e-06
-1.8271797443958349e-06
2.0356831669232633e-06
6.703293706777913e-07
1.9473355905574863e-07
-1.2153412285442755e-06
-6.255424978007795e-07
-6.079135914660583e-07
-1.982203286843287e-06
-1.0274698070134036e-06
-2.7170038379153993e-06
-3.1650447454012465e-06
-2.8457795337999414e-06
-3.8708723764102615e-06
-4.924901872982446e-07
-6.30605427431874e-07
5.875083957107563e-07
1.6213609228543646e-06
-1.7346459344480536e-06
-4.357861541848251e-06
-7.65308408290366e-06
-7.368750573277794e-06
-3.222193811325269e-06
2.4402717713201127e-06
1.1241888330459915e-05
1.3520514244191872e-05
1.3679096923624456e-05
1.3108258656302496e-05
1.0808493755121162e-05
1.1371528330528236e-05
9.661592173415556e-06
9.768738209459116e-06
7.80283107815194e-06
1.862508327121759e-06
6.010626520946971e-07
-2.1653475528182753e-06
-5.355870712264732e-06
-9.240633460194658e-06
-1.5008466448307445e-05
-1.673786357514473e-05
-2.0855583670709166e-05
-2.0892922407256265e-05
-1.896940057122265e-05
-1.9573731037780817e-05
-1.89704359740972e-05
-2.1444123888159083e-05
-2.3596987034579797e-05
-2.5503971357920818e-05
-2.5389446079771005e-05
-2.285011737512832e-05
-2.6752618964565045e-05
-3.316727304536471e-05
-4.4226481122677797e-05
-5.825539608395047e-05
-6.754326557256718e-05
-7.240258617002837e-05
-6.003729788517376e-05
-3.163287425422823e-05
1.1918790335130325e-05
7.236535464016924e-05
0.00013945310757890184
0.00020497675103570145
0.00024920763229374643
0.00024909867613587267
0.00020013291975828906
0.00010844628457107319
7.477713836578914e-06
-6.806099423783962e-05
-0.00010624913090850896
-0.00011027167238353286
-9.560741955283447e-05
-7.257252428871652e-05
-5.227138177588131e-05
-3.750977157324087e-05
-2.533931427706193e-05
-2.151405368522319e-05
-1.9636476565665362e-05
-1.709109301373246e-05
-1.6995939745356736e-05
-1.5542555445335893e-05
-1.6980591738047224e-05
-1.5031656914743508e-05
-1.2465820816487394e-05
-1.3281437645673577e-05
-1.1549737166660634e-05
-1.2541771411633817e-05
-1.4781901313654089e-05
-1.3701740215310565e-05
-1.1613961703460518e-05
-8.677407890900213e-06
-9.298438385485497e-06
-9.211312487877876e-06
-9.259499961444817e-06
-1.0893923388266558e-05
-9.054429654042906e-06
-7.437782016950223e-06
-6.082768038595532e-06
-7.183697107393527e-06
-9.708757431781123e-06
-8.510027271313447e-06
-7.871382365465251e-06
-1.962711678515916e-06
6.415077280053083e-06
1.171295679114337e-05
1.4746287888556253e-05
1.5201708833956218e-05
1.8588637203720282e-05
2.0361399720059126e-05
2.1189777555719047e-05
2.610782649981047e-05
2.946871438780363e-05
3.4102207393971185e-05
3.949494720245639e-05
4.204309789201943e-05
4.712536008355528e-05
5.031953566003722e-05
5.371363829453912e-05
5.505576922359978e-05
5.084029834279136e-05
4.55517383102233e-05
3.8267594334229216e-05
3.356640473839434e-05
2.9678564544610708e-05
2.266742831125157e-05
1.7391044195846916e-05
7.176081453508232e-06
-4.3319831775079365e-06
-1.1153106243000366e-05
-1.5707487648342067e-05
-1.5320694899401133e-05
-1.3732335730765044e-05
-1.1918455527393235e-05
-1.3416909382613085e-05
-1.763207933436206e-05
-1.7319064397725015e-05
-1.6986980995170597e-05
-1.718980428222494e-05
-1.7611242071779998e-05
-1.8262139235503128e-05
-1.554383538859838e-05
-1.6075084317890287e-05
-1.458822561062334e-05
-1.4149174376143492e-05
-1.7742375064244698e-05
-1.650356534810271e-05
-1.6174998847873212e-05
-1.5823831859052007e-05
-1.3323959421995824e-05
-1.1104238240022823e-05
-6.854922162347066e-06
-6.5485806430842786e-06
-6.303766326709592e-06
-4.996074437713105e-06
-8.307350128688995e-06
-9.562098966853227e-06
-1.1593379895202816e-05
-9.583955886682816e-06
-4.78071984844064e-06
-1.0156049938814249e-06
6.212594144017203e-06
8.707217716619198e-06
8.602417722158862e-06
8.158275250025326e-06
4.837337314711476e-06
2.3150536208049743e-06
-4.617911542936781e-06
-6.0206174339327845e-06
-3.859537798689416e-06
-3.1829819704398687e-06
1.215780002894462e-06
4.439474992068426e-07
-2.469569324148324e-06
-4.475785885915684e-06
-7.0117729933372175e-06
-5.676635169038491e-06
-7.427474770338449e-06
-7.0537737997256045e-06
-4.789644265201787e-06
-3.573080846308585e-06
-1.9927625771742896e-07
3.816731464212353e-07
5.359984356800851e-06
9.501968861513888e-06
9.958792418274243e-06
1.2474531331463368e-05
1.0290898899256717e-05
8.219744131565676e-06
6.710591208047845e-06
5.550179821511847e-06
7.4887134928758314e-06
4.621035884611047e-06
4.464050618935289e-06
5.572672932885325e-06
1.8585132579573838e-06
7.456745265699283e-07
-3.3368540925948764e-06
-7.372595234755863e-06
-1.0842774372576969e-05
-1.5005507009391295e-05
-1.519281238415715e-05
-1.9645221641440003e-05
-2.0845885444487067e-05
-2.060812079207608e-05
-2.320518467513466e-05
-2.3373617295874283e-05
-2.689701699409852e-05
-2.8774510099083273e-05
-3.0376763731965184e-05
-3.4783197008891875e-05
-3.394501737830069e-05
-3.5247897699264286e-05
-4.2103191958631214e-05
-5.165390763295363e-05
-6.422534869443552e-05
-7.180036544696122e-05
-7.133148972116032e-05
-5.062703047542527e-05
-1.0070383893889812e-05
4.539536627135021e-05
0.00011863286272273399
0.0001926336486803848
0.00025004174307241556
0.0002656511021541519
0.00022528875899752165
0.00014387239139068697
3.681577044289952e-05
-5.2108392139871285e-05
-0.00010007282094193215
-0.00011583114667246264
-0.00010584914463152018
-8.611648917167258e-05
-6.460227319848855e-05
-4.714935050742497e-05
-3.530630920067779e-05
-2.5173604115025228e-05
-2.1335416022338904e-05
-2.0148147768850322e-05
-1.95582675814876e-05
-2.0817750396417978e-05
-1.933010190668938e-05
-1.988499019489609e-05
-1.8058795376418857e-05
-1.3766909887635848e-05
-1.2959622949892946e-05
-1.1576618021535978e-05
-1.1612403454819287e-05
-1.1227535082980467e-05
-1.1576703116134013e-05
-1.2902190974273253e-05
-1.1515949665863445e-05
-1.4840777964764129e-05
-1.79851168127243e-05
-1.942597191373352e-05
-2.086081173047205e-05
-1.8544510851370433e-05
-1.6450688292479754e-05
-9.28319934700994e-06
-3.478742257811973e-06
-3.140738499496365e-06
5.060297780801193e-07
2.038584000274568e-06
1.7477015035183285e-06
3.6490076240625058e-06
4.918928482311458e-06
7.660723042590689e-06
7.690192717291211e-06
1.2070138325270818e-05
2.0021966406602587e-05
2.7178581490261422e-05
3.625880776780832e-05
4.037193377826043e-05
4.136215915195862e-05
4.0778415154818504e-05
3.805218750585482e-05
4.014188795053997e-05
4.095425407513176e-05
4.263189947550927e-05
4.6623124774214375e-05
4.712112371407784e-05
4.652024631468521e-05
4.129049415269037e-05
3.63787138439875e-05
2.9832553423148056e-05
1.9343760584433767e-05
1.3172678450246167e-05
4.839053929117654e-06
-3.4222846920783923e-06
-9.62040962804167e-06
-1.55500418372867e-05
-1.7459357536608877e-05
-2.253723147305209e-05
-2.5486268100394227e-05
-2.7149223967626313e-05
-3.0236552106543968e-05
-2.9233872623990464e-05
-2.6265759004218125e-05
-2.221735610419273e-05
-1.9745240535939956e-05
-1.7981362134378287e-05
-1.4438486061862932e-05
-1.5679216005537455e-05
-1.3877699927888898e-05
-1.1699061872150196e-05
-1.3182643215259304e-05
-1.1904030884579697e-05
-1.1895732257016789e-05
-8.842701618050341e-06
-5.914049154398526e-06
-7.97383955841724e-06
-7.544475408849394e-06
-9.08942644173294e-06
-1.0575462965789484e-05
-9.319331638835138e-06
-7.81595673515767e-06
-3.5437821566119965e-06
-2.6902908416559512e-06
-1.5032424016681034e-06
-1.1104758641522494e-06
-3.85431081895149e-06
-6.5038498178182635e-06
-9.833344734033744e-06
-1.040489922843335e-05
-9.618408114420163e-06
-8.624049939953693e-06
-3.848964809094468e-06
-2.112247443619708e-06
-2.110705395352852e-06
-2.902551159422728e-07
2.3178819219538127e-07
9.223417691828217e-07
1.4671405779154156e-07
3.406048790566274e-06
6.492305203664728e-06
4.662322453441448e-06
5.853188156379474e-06
3.561118603556679e-06
-6.522532771668921e-07
-7.869688261052943e-07
-2.5297060801676707e-07
2.5616408265705104e-06
4.654271890558448e-06
9.48865397276677e-06
1.2679118185587868e-05
1.1750977478186542e-05
1.0977064164308103e-05
6.720898284129362e-06
4.600425654643914e-06
3.960206299780111e-06
1.4638126231147908e-06
1.6094484180939617e-06
-3.575327696125896e-06
-5.996950733333506e-06
-6.448042654483288e-06
-1.1916132621081488e-05
-1.5316308690671576e-05
-1.9972520590272325e-05
-2.1055321383300907e-05
-2.156563527933031e-05
-2.5236403018880083e-05
-2.593394992800313e-05
-2.839187777681218e-05
-2.8629070868646522e-05
-2.593083388546802e-05
-2.7050714834331302e-05
-2.7519404852682783e-05
-3.2367338633321197e-05
-3.79773643999215e-05
-4.5535018216469325e-05
-5.827707053640552e-05
-6.829442759226367e-05
-7.456183897147639e-05
-6.765060328461914e-05
-4.270240208370524e-05
-3.9599444221494196e-06
5.2237053580483916e-05
0.00011744026028281951
0.00018756179969159348
0.0002463768749976225
0.00026162266760820785
0.00022717195236054977
0.00014477432250714628
4.1811525989032816e-05
-4.383595552326369e-05
-9.697209497971926e-05
-0.000110181066588666
-9.945612089268252e-05
-8.094919803625089e-05
-6.200520397214859e-05
-4.734993342481175e-05
-3.4365652368251176e-05
-2.8664914850651257e-05
-2.4173253677872708e-05
-1.986153216648745e-05
-2.0004087502911716e-05
-1.7522632276723016e-05
-1.5453825710665114e-05
-1.584774287266555e-05
-1.7279725227581366e-05
-1.7703603361951536e-05
-1.5178323906184232e-05
-1.582329832672258e-05
-1.5586049016746983e-05
-1.4085229395277565e-05
-1.6607317661510024e-05
-1.6486823312789056e-05
-1.6192936413972348e-05
-1.3451520260332472e-05
-9.831131194459886e-06
-9.097907536670391e-06
-7.507291286401596e-06
-7.853433373838925e-06
-8.654805583319103e-06
-6.349420061724231e-06
-4.711750705155282e-06
-2.0280754142731894e-06
-2.8446171995710756e-06
-3.315048388685682e-06
-3.1307444601225143e-06
-2.345614973364718e-06
2.177384317292308e-06
5.9882686969103815e-06
1.1556950710200908e-05
1.7935238929567277e-05
2.1102487210100662e-05
2.5348435769956268e-05
2.5671149899153534e-05
2.7762091349359252e-05
3.242626269184257e-05
3.6453375344080996e-05
4.180327817948637e-05
4.238183873894741e-05
4.327218789512699e-05
4.483307549207893e-05
4.4244272771720716e-05
4.577413324113877e-05
4.500690175746058e-05
4.121660168721064e-05
3.5693925553914596e-05
2.736281504667204e-05
2.183924101473167e-05
1.0806021748521744e-05
1.5052690969241667e-06
-3.842257683572825e-06
-1.196314093476758e-05
-1.4800785891111445e-05
-1.6539051671315974e-05
-1.6636324403407343e-05
-1.5520349222697405e-05
-1.6624927184238913e-05
-1.6458833044907806e-05
-2.1940377621376683e-05
-2.6465718804047356e-05
-2.548803189483806e-05
-2.4733707846280595e-05
-2.181149272928451e-05
-2.0040937783960544e-05
-1.918174950787943e-05
-1.8151464132643014e-05
-1.83652009582147e-05
-1.510428631945615e-05
-1.2344727622348728e-05
-1.0334708861137187e-05
-7.146235702748527e-06
-5.715227132441214e-06
-3.5759561569648213e-06
-4.966937183326081e-06
-5.512296240794967e-06
-4.554967858894088e-06
-4.430589569892618e-06
-2.011850995131681e-06
-1.7546461776873912e-06
-2.5579603857295297e-06
-3.769049669699598e-06
-6.071518328099046e-06
-5.43188144774831e-06
-7.958249682360474e-06
-8.64099695263576e-06
-7.045478241707315e-06
-9.353839743653225e-06
-9.58124917360692e-06
-7.193002772964974e-06
-4.719249773188494e-07
5.595703839844646e-06
9.37121899369231e-06
9.207094478824729e-06
1.979982869215746e-06
-4.819353534912807e-06
-9.350776451810816e-06
-1.3360805894535588e-05
-1.2984288161987934e-05
-1.6654644866775925e-05
-1.9085345286384836e-05
-1.9036589947063476e-05
-2.1459290906022943e-05
-2.0477461418977327e-05
-2.041673991470816e-05
-2.1983194073982304e-05
-2.496419193676047e-05
-3.038979087932603e-05
-3.505084589505714e-05
-4.490898260200993e-05
-5.559124934961801e-05
-6.540421964018606e-05
-7.514456353874266e-05
-7.351550391376804e-05
-5.7669572754548426e-05
-2.418126672409926e-05
2.644676681029523e-05
8.913703885582436e-05
0.00016482432653219803
0.0002343044561712304
0.00027223221655958696
0.0002605636761927599
0.0001951189272517695
9.870652769450317e-05
3.736377038876526e-07
-6.614862093101692e-05
-9.325250556457831e-05
-9.512633766917133e-05
-7.906485990361034e-05
-6.089343327175811e-05
-4.8725508293046005e-05
-4.0003667493238027e-05
-3.573207425233704e-05
-3.0926206761705544e-05
-2.8406033436567668e-05
-2.5846096605164348e-05
-2.0368821708416363e-05
-1.9018298928585864e-05
-1.7264375060221937e-05
-1.8534492255639634e-05
-1.9311178675707197e-05
-1.7657249145486276e-05
-1.8670591998670716e-05
-1.566284726095546e-05
-1.4036939774086932e-05
-1.3914350290633593e-05
-1.2062760163189523e-05
-1.2585771628437215e-05
-1.042869808998148e-05
-1.062563563891672e-05
-9.590079059762502e-06
-6.595101240236545e-06
-7.735541942111013e-06
-8.946650041252724e-06
-1.1168480057222041e-05
-1.1748855854420981e-05
-9.982329004287749e-06
-8.63361401570728e-06
-3.5794693076240947e-06
-1.99358089503221e-06
-1.3753884786638082e-07
4.142789407524106e-06
6.410125422462443e-06
1.1112664253687399e-05
1.4562282729002618e-05
1.9909523757632996e-05
2.53264550451604e-05
2.7431444607373123e-05
3.2352968048598996e-05
3.6032858872658835e-05
3.9756323644724034e-05
4.378513148139973e-05
4.5042986869248125e-05
4.840716673015777e-05
4.719422736343404e-05
4.4547684638018836e-05
4.254668886005675e-05
3.8501539734170365e-05
3.553494275365665e-05
3.236006767792787e-05
2.913857264275066e-05
2.542416495998623e-05
1.834546185364161e-05
1.2131108235280408e-05
2.8819040949201735e-06
-4.801430918632832e-06
-9.255438328636956e-06
-1.4238542121347564e-05
-1.426394635473116e-05
-1.621442135046891e-05
-1.647823910388979e-05
-1.578166137505832e-05
-1.999811792074979e-05
-2.1278371491462167e-05
-2.231151671594489e-05
-2.2746261436168425e-05
-2.000134441004775e-05
-1.801595828965219e-05
-1.5627831658093783e-05
-1.805750144967533e-05
-1.7676362631391385e-05
-1.5322167371323303e-05
-1.4023639778315555e-05
-8.831197419567616e-06
-8.37475863590953e-06
-9.136063681580708e-06
-8.960398758972588e-06
-9.865069898751244e-06
-5.373154124299617e-06
-3.5471738328851643e-06
-1.5748148598504486e-06
8.04462388259708e-07
-2.9610260412482603e-06
-4.635924199192232e-06
-7.173353765210777e-06
-7.633606344370492e-06
-5.611964525087387e-06
-6.197328843882133e-06
-2.235118415683246e-06
2.0946913537045475e-07
3.212759338566684e-07
1.2882674695902097e-06
-8.052824682636128e-07
-5.851642868037743e-07
-1.788238478184212e-06
-2.2005344249009795e-06
-9.950173875949986e-07
-4.896400241705123e-06
-7.986764046563621e-06
-1.0871609958940098e-05
-1.2611617933089292e-05
-8.637150187951192e-06
-4.511877079949045e-06
3.290500956154574e-06
6.310863341241202e-06
6.785740538362006e-06
7.562398309346463e-06
4.819894513730105e-06
3.750479777409055e-06
2.9893701025685004e-06
4.74898121183287e-06
7.670289789984963e-06
8.860389129949908e-06
1.323519455809219e-05
1.4070586246361927e-05
1.2225148566358257e-05
9.855732741925749e-06
3.6669406995315512e-06
2.9487954407159123e-06
1.870865901310026e-06
1.4113470570009667e-06
2.4670242169122503e-06
-2.5154972718155477e-06
-7.491767064493615e-06
-1.3315310980033246e-05
-1.804953672035481e-05
-2.0174469284484076e-05
-2.2591227775592415e-05
-2.0993013833958685e-05
-2.1778105292469263e-05
-2.224161011099568e-05
-2.094775106797897e-05
-2.4926547780523833e-05
-2.7674812031364127e-05
-3.170128127294447e-05
-3.478830376479891e-05
-3.591760525978316e-05
-4.1357102759320696e-05
-4.7992989948397735e-05
-5.885427833618451e-05
-7.027374761037208e-05
-7.559205738516539e-05
-7.038272769932519e-05
-4.233487129567948e-05
2.5935941607713175e-06
6.422593895649698e-05
0.00013999024582744823
0.00021221194464260407
0.0002618332367774201
0.0002655413524621508
0.00021932037526539716
0.00013229457226771046
3.0524366081863263e-05
-4.64898050154261e-05
-9.04007020494646e-05
-0.00010118731256625324
-8.790805577518768e-05
-6.856154209344822e-05
-5.0275630599116994e-05
-3.9751957501721336e-05
-3.2293674337324774e-05
-2.830065477610333e-05
-2.9004402051668876e-05
-2.40347201838631e-05
-1.8948523972994735e-05
-1.4746751162419969e-05
-1.1360734958998364e-05
-1.2483104626426211e-05
-1.2525025226750586e-05
-1.723842251522001e-05
-1.8460187504842906e-05
-1.5489425834402937e-05
-1.490197331577292e-05
-1.2041132833928714e-05
-1.1786116886014497e-05
-1.0916388418991119e-05
-9.819177535064227e-06
-1.1596022204685141e-05
-9.091896913560049e-06
-1.0973802886837802e-05
-1.451374185990062e-05
-1.581520183435714e-05
-1.7463937865613843e-05
-1.4378852597474179e-05
-1.0083352378842392e-05
-3.9071558148862096e-06
1.5366213688139396e-06
5.903280566599278e-07
1.5799402035554522e-06
3.173349853113905e-06
5.45748014246783e-06
1.1431098016601027e-05
1.769555808550649e-05
2.6200638785667252e-05
2.97043831665178e-05
3.1047238849168934e-05
3.3100469352120854e-05
3.156575894536218e-05
3.3116927113496786e-05
3.502948322875454e-05
3.547162407357973e-05
3.807166820024577e-05
4.0200314117555536e-05
4.5880711695645005e-05
4.610877840605099e-05
4.266410718400948e-05
4.02102415932859e-05
3.455746428926432e-05
3.1471546151351504e-05
2.637903628510685e-05
1.97980015173016e-05
1.1748524627819279e-05
4.921753316011745e-07
-4.688576836997527e-06
-8.23119199822031e-06
-1.2588598508500581e-05
-1.4602389512674563e-05
-1.7089310858864337e-05
-1.77531130702846e-05
-2.0008668570881127e-05
-1.9266042500021285e-05
-1.7250556538783712e-05
-1.8967975847772323e-05
-1.9401837960231205e-05
-1.979550410169395e-05
-1.9054792289807665e-05
-1.5209468529064907e-05
-1.342414981309048e-05
-1.2422428994796064e-05
-1.5096033621375682e-05
-1.587124381785543e-05
-1.2267922386399732e-05
-8.68519214236585e-06
-3.2690644502508803e-06
-3.4039772458527295e-06
-5.160983221230708e-06
-5.632921954656922e-06
-8.392219001507328e-06
-6.168792936023237e-06
-2.4428642291240976e-06
-2.221368617938424e-07
2.1445225684146862e-06
1.0665826835065673e-06
3.1394266670758952e-06
9.748943625709217e-07
-1.0561064414105203e-06
-3.6648418699769536e-07
-4.965412756519072e-06
-6.805544501276017e-06
-6.307068133537541e-06
-6.542894027461443e-06
-5.238950052444125e-06
-6.320394163594756e-06
-5.104365698116453e-06
-6.067814013022144e-06
-5.294404502365069e-06
-1.0704312103371194e-06
-1.1637366128525173e-06
-4.87380759750522e-07
-1.232739691658935e-06
-1.718715623155731e-06
7.088752340678184e-07
1.4189336638992245e-06
4.75875822303351e-06
7.265877627560258e-06
6.718012116380123e-06
5.0752226457007055e-06
2.410793456419924e-06
4.07184620598855e-06
2.561559711011796e-06
2.6233235530526144e-06
3.7981824902999506e-06
2.3750754962748033e-06
5.58305049480623e-06
6.306234752173623e-06
6.880048260882177e-06
8.244068794738268e-06
5.050985009802389e-06
6.0619603345912765e-06
3.0717799290869152e-06
-2.0714177821901103e-06
-5.365980996430153e-06
-1.1087206644333492e-05
-1.3619476817439136e-05
-1.796872737713784e-05
-2.1242021432499314e-05
-2.0341869628737186e-05
-2.214033207792454e-05
-1.9109730999389285e-05
-1.6235083364790626e-05
-1.749528803429712e-05
-1.9290544059913373e-05
-2.4624504021630855e-05
-2.7721164030936052e-05
-3.310703795023073e-05
-3.692152620260458e-05
-3.7264309014517494e-05
-4.2438593368387956e-05
-4.939744218290798e-05
-6.005914275419855e-05
-7.025178013009281e-05
-7.036412398520042e-05
-5.825707887652243e-05
-2.3139271718264354e-05
2.7406192486978398e-05
9.141225086750637e-05
0.00016642836988012277
0.00022803340573318565
0.00025860056234705553
0.00024141496317042765
0.00017688772197743674
8.313340276799863e-05
-1.030685814384924e-05
-7.165383658502833e-05
-9.888057974194453e-05
-9.710322353839729e-05
-7.795696797074925e-05
-5.97438813088047e-05
-4.354706197773339e-05
-3.5382189821575594e-05
-3.07464013644676e-05
-2.629747439186758e-05
-2.5409710531221208e-05
-2.2535802202128252e-05
-1.9522271941241343e-05
-1.7353714554246835e-05
-1.4009240146606317e-05
-1.3988381795115856e-05
-1.359827791702628e-05
-1.4431944691750687e-05
-1.6756533170791954e-05
-1.661695608845548e-05
-1.746464602092601e-05
-1.822074267465723e-05
-1.8289658953563048e-05
-1.663606963120401e-05
-1.516423685643531e-05
-1.6002074630705465e-05
-1.332291026301391e-05
-1.0980360457324423e-05
-1.0365848424953583e-05
-8.575853144066059e-06
-7.9012668265932e-06
-4.0031569028542435e-06
-3.526020975641586e-06
-2.6324239001951355e-06
4.580101631290745e-07
-4.775081947627768e-07
5.710880941478536e-07
2.8518622343653988e-06
4.43539613570465e-06
8.117601453250245e-06
1.1428303196225897e-05
1.6432292852641694e-05
1.8577172568257083e-05
2.0826077957281086e-05
2.5584385184629355e-05
3.0033302550691587e-05
3.6564430956786964e-05
4.1005901664448174e-05
4.467771822191935e-05
4.8473066215137806e-05
4.676991557062138e-05
4.5567747520181e-05
4.2710633408660215e-05
3.8144775373893935e-05
3.542953288615536e-05
3.142337033068543e-05
2.893013612492723e-05
1.988772413596962e-05
1.0673808844785526e-05
5.890048782930535e-06
-1.1366857393113605e-06
-3.4595734632603126e-06
-5.738896390994341e-06
-1.0773635722216568e-05
-1.480518665175623e-05
-1.851880352887747e-05
-1.913466428504762e-05
-2.0018687564515858e-05
-2.0892275642836466e-05
-2.02222254301887e-05
-2.15568875887584e-05
-2.0800002744181256e-05
-2.0092822296646773e-05
-1.7681745703157503e-05
-1.3456777026021882e-05
-1.3661615412274841e-05
-1.3127002603141591e-05
-1.409153827580667e-05
-1.6751578755247465e-05
-1.7189559741837e-05
-1.8118216019047395e-05
-1.4893880234012613e-05
-1.4022933271462534e-05
-1.2405116194713628e-05
-5.4182478947950585e-06
-6.152207561171963e-07
3.216882760170847e-06
5.096822405903367e-06
2.107008754137496e-06
-1.0546089015406324e-06
-5.503406498519325e-06
-6.202989709436224e-06
-6.932491373845551e-06
-6.529012864575634e-06
-1.3569630255005904e-06
-9.935530442817253e-07
1.2097107173758559e-06
1.6132909195221146e-06
-8.699208819962223e-07
-9.557462021803076e-07
-3.783595388995309e-06
-3.6752686582985916e-06
-3.4658519894037454e-06
-3.81346728772769e-06
-3.7551101854660374e-06
-4.779895618867158e-06
-2.1209298211033456e-06
-2.401952883701597e-06
-1.269598953967943e-06
3.572347850422375e-06
4.372588477963291e-06
5.3932749892737775e-06
5.347138710476429e-06
4.670530358907854e-06
6.503284794234787e-06
6.280507136580127e-06
7.974335630933638e-06
5.501077282588085e-06
2.1580783595709363e-06
3.853503301343153e-06
4.989081162420916e-06
7.159733570460958e-06
5.76741069835407e-06
3.874621370414388e-06
3.3872850622174155e-06
-2.5344430127915984e-06
-4.371790112145391e-06
-6.474611666362762e-06
-1.2158169226950122e-05
-1.4346648015362007e-05
-1.6721302188216214e-05
-1.6468655928747467e-05
-1.8586649957796908e-05
-2.1055850368156825e-05
-1.945874896591704e-05
-2.017364073481076e-05
-1.94422586332621e-05
-2.0230161396739277e-05
-2.3816169800738862e-05
-2.8186678378006036e-05
-3.395026982389027e-05
-3.526807091702722e-05
-4.073707185625608e-05
-5.0579769492742344e-05
-6.0712143181262945e-05
-7.187490678006725e-05
-7.282037330469393e-05
-5.6870663172503555e-05
-1.9739252309136646e-05
3.4513349589815334e-05
9.794434299692512e-05
0.00017047603557784896
0.0002305497345673757
0.00025561398069839925
0.00023181617331147208
0.00015869672091639586
5.994873112058485e-05
-3.433689386156402e-05
-9.251340782157058e-05
-0.00011138663666088178
-0.00010697665680936552
-8.56106852324956e-05
-6.295405700029733e-05
-4.5210058374323125e-05
-2.9439552292842563e-05
-2.1746452830484486e-05
-1.57466688506247e-05
-1.3263234563964943e-05
-1.3408386280389095e-05
-1.1593144336075056e-05
-1.3337994857920421e-05
-1.542359365203083e-05
-1.8186892077665107e-05
-1.9442778750544676e-05
-1.885629421849444e-05
-2.069552010652842e-05
-1.934930509150945e-05
-1.8557756050086027e-05
-1.9032085276649013e-05
-1.9182159974207025e-05
-1.838299908740737e-05
-1.4957553901240317e-05
-1.2911556098060828e-05
-1.0526774076424772e-05
-7.481521208774211e-06
-7.221774012577953e-06
-5.886634369289823e-06
-4.790834566392732e-06
-3.1327996907748457e-06
2.596719355096866e-07
1.4490115063381381e-07
2.140207357115287e-06
2.0767564024026797e-06
4.923715550830821e-07
3.5836736742567155e-06
7.644706442988536e-06
1.4987760891926882e-05
2.144724373920326e-05
2.5817312177878193e-05
2.9417792802632903e-05
2.962607277368079e-05
3.1942000532581005e-05
3.663893153316167e-05
4.140397885521452e-05
4.6015393877496535e-05
4.615633218918447e-05
4.772696183863445e-05
4.5391257629034953e-05
4.0703277647935465e-05
3.922132287925706e-05
3.702259073179448e-05
3.686323594820351e-05
3.530097092152573e-05
3.190563671751079e-05
2.6641919248504564e-05
1.4858492988878425e-05
7.310088790291047e-06
-1.0248720627714647e-07
-8.104692938104563e-06
-1.1999568357623502e-05
-1.7663645962784358e-05
-2.0681939076894196e-05
-2.1595366831661522e-05
-2.1676907010714785e-05
-1.8725190955137805e-05
-1.8240156919091532e-05
-1.8519101161018625e-05
-1.8192992115473317e-05
-1.8163424556405516e-05
-1.814456550164323e-05
-1.9709097045961244e-05
-1.8665243999294034e-05
-2.164654182479353e-05
-2.4054696041275747e-05
-2.1006298766224063e-05
-2.0414402456481184e-05
-1.7621806080114766e-05
-1.379166462811554e-05
-1.1073312975895533e-05
-6.914207517638715e-06
-7.202979020348721e-06
-7.0677114649697614e-06
-6.215093605987931e-06
-4.913428313102486e-06
-1.9212692450309987e-06
-1.3578462585428497e-06
-6.757649657629372e-07
-2.1440782234094513e-06
-2.3558911834697938e-06
1.64361267707136e-07
-3.302053301013075e-06
-5.513265705303638e-06
-4.566135316963482e-06
-4.0515329828849644e-06
-3.3130748988696723e-06
-5.062020932200539e-06
-4.759929993269907e-06
-5.581788968811452e-06
-4.412843850332138e-06
1.2842091337006423e-06
5.367956362078985e-06
7.318718246551725e-06
6.484602977252507e-06
5.265416007205204e-06
4.870194572959008e-06
1.7614410126043367e-06
6.308869103577308e-06
9.667581480243825e-06
9.93059018128406e-06
1.2746965182941494e-05
1.0205653552475269e-05
7.989896403159946e-06
6.638987827045639e-06
5.5806677323744225e-06
6.567699927018111e-06
3.416312267745525e-06
2.8374999487823516e-06
5.051928724242316e-07
-4.775399986556295e-06
-7.642793434570194e-06
-1.3428767317691381e-05
-1.5591604153541994e-05
-1.659329296899159e-05
-1.7171486035749695e-05
-1.4887441295741155e-05
-1.6567727016081335e-05
-1.9348091711890447e-05
-2.2948640207687276e-05
-2.7033018398014974e-05
-2.7564448032535438e-05
-2.8851928846052033e-05
-2.806424447499012e-05
-3.0344987180797034e-05
-3.6407919822067925e-05
-4.092666466704031e-05
-4.9157450007442094e-05
-5.780543182254405e-05
-6.484789707883465e-05
-6.961379989434135e-05
-6.186329432011917e-05
-3.833402820418996e-05
4.867856887358357e-06
6.420130864626117e-05
0.000134537668543544
0.00020522053466720536
0.0002539988593639464
0.00026276270460812157
0.0002171042885947827
0.00012660865900215867
2.1739498720307893e-05
-6.443616075557657e-05
-0.00011171369322937608
-0.00012191001758310449
-0.00010627000347085414
-7.856589274979342e-05
-5.527476417910293e-05
-3.730793093836837e-05
-2.743979626984583e-05
-2.3126109908844228e-05
-1.966317552160035e-05
-1.975971434831081e-05
-1.86068441507814e-05
-1.8600261398660223e-05
-1.89638962524441e-05
-1.4622364005845156e-05
-1.3879969515073753e-05
-1.1783349066263327e-05
-1.0025400456470379e-05
-1.2027632180888759e-05
-1.1933723840229504e-05
-1.3716873297653365e-05
-1.290482771310053e-05
-1.1893211478763988e-05
-1.3211128305101738e-05
-1.2939084058416483e-05
-1.2785878482191038e-05
-1.0883917298087908e-05
-7.788311563672323e-06
-4.29339536367479e-06
-6.617630674554675e-07
-1.942217465966678e-06
-2.511777665858972e-07
2.707914177335624e-07
9.912355380947702e-09
3.3180106129293563e-06
3.2690774673937995e-06
5.033328079662169e-06
6.14609717786152e-06
6.435404088733776e-06
1.0269419533415203e-05
1.3408160555172799e-05
2.0361710710403713e-05
2.6436204166202515e-05
2.9185585333380004e-05
3.188301297996077e-05
3.24357687304655e-05
3.766693134821253e-05
4.3259502604087174e-05
4.611288193245855e-05
4.782869865493922e-05
4.508894272703401e-05
4.22402883941686e-05
3.991299030303708e-05
3.806223242008855e-05
3.882521605191869e-05
3.5059086599176226e-05
3.1708291771792574e-05
2.4988106815726496e-05
1.5842912546304433e-05
6.904548115471698e-06
-3.85898124477535e-06
-9.410256325281807e-06
-1.5301047938010015e-05
-2.0131828932790086e-05
-2.0912302716169506e-05
-2.677145818097415e-05
-2.868405204026203e-05
-2.764343992112117e-05
-2.5720919609284465e-05
-2.0238062461430673e-05
-1.6630749598789407e-05
-1.0780015486488992e-05
-8.610020870492008e-06
-8.929753050779254e-06
-7.520256701809558e-06
-9.862920705927536e-06
-1.1950298471674614e-05
-1.4099004602030618e-05
-1.6322957435477292e-05
-1.4492159095880197e-05
-1.5661859492865915e-05
-1.4772466784052085e-05
-1.2694318684225436e-05
-1.1978817269664432e-05
-8.763617927343148e-06
-7.2133055368794885e-06
-6.155956384645833e-06
-5.396004041813285e-06
-4.380182247132325e-06
-2.230555196547357e-06
-4.343027967479429e-06
-5.716657369703171e-06
-6.707665704652754e-06
-5.68492725960823e-06
-1.6674518406034622e-06
-2.3931829673529137e-07
1.7754406940184708e-06
-2.9046077543171123e-07
-5.117972477819421e-06
-4.9542947522240866e-06
-5.213790473135305e-06
-1.940961226409854e-06
2.520681221085397e-06
4.616545709268394e-06
7.878151450313453e-06
8.157691354426788e-06
1.206696322242351e-05
1.541319096531879e-05
1.582062429861253e-05
1.6609770113973354e-05
1.2331905679729971e-05
8.811509587758337e-06
5.96850117062786e-06
4.041378360852832e-06
4.359877834758663e-06
-2.447328029120399e-07
-2.462158420257765e-06
-3.847537755063968e-06
-5.934915861871559e-06
-5.293431570407847e-06
-7.389017468995007e-06
-7.3786350753834995e-06
-1.0702054794364813e-05
-1.6395304044181103e-05
-1.5186357302354736e-05
-1.6156701121872175e-05
-1.754863899350312e-05
-1.7795691860555962e-05
-2.1427550791486283e-05
-2.3454675954326376e-05
-2.8605999432329554e-05
-3.016683058376657e-05
-3.0810555017524166e-05
-3.359540153269336e-05
-3.393003987639531e-05
-4.06701665269793e-05
-4.9664878304156446e-05
-6.061974727344932e-05
-7.198660796348122e-05
-7.298577094161374e-05
-6.382147074646127e-05
-3.4326300863085635e-05
1.5284815560789866e-05
7.887299858566621e-05
0.00015454286443628007
0.0002210458895319789
0.00025820879329785384
0.000246535964265604
0.0001835489818517999
8.838703826086203e-05
-7.696910756749276e-06
-7.307168795023244e-05
-0.00010227961973896527
-0.00010132959107522765
-8.139732318568349e-05
-6.233203566807788e-05
-4.467399725172072e-05
-3.2985023665332847e-05
-2.761473160717287e-05
-2.1763175595879147e-05
-2.0269260005534306e-05
-1.8756502072392323e-05
-1.886443953935668e-05
-2.1936655684839934e-05
-1.9777586430791416e-05
-1.856412734468904e-05
-1.71357886529222e-05
-1.3909420090385538e-05
-1.3050642394318857e-05
-1.2728432523090305e-05
-1.3803989816096873e-05
-1.030985202987722e-05
-1.0744259441253234e-05
-1.2938553368257999e-05
-9.200462386615982e-06
-8.126448960865673e-06
-7.526684896674851e-06
-7.0561861207352194e-06
-9.954121992450382e-06
-1.0744583676114416e-05
-1.3274322839151864e-05
-1.0700897860260739e-05
-6.443334314099047e-06
-3.1560065281155403e-06
1.1773781238844094e-06
2.778837767891673e-06
6.1986308992345585e-06
6.817821542881575e-06
6.563895681210852e-06
1.042046000065966e-05
1.0317261285308632e-05
1.596017904148539e-05
2.4748385385464644e-05
3.1282389215903095e-05
3.786765341828868e-05
3.849483067597248e-05
3.896279389437041e-05
3.863323831865273e-05
3.769807824482996e-05
4.04847015715859e-05
4.252039451557721e-05
4.4150965493372496e-05
4.3167460660242796e-05
4.007112448789485e-05
3.673027754302893e-05
2.9653261435669265e-05
2.4080873743059783e-05
1.7646959179273836e-05
1.0013918995355198e-05
4.088028276783007e-06
-3.826691397534887e-06
-8.204919026866264e-06
-1.0599203335459606e-05
-1.3712020404454961e-05
-1.3409528378360847e-05
-1.4133828528883896e-05
-1.4357867769376753e-05
-1.3925885980370367e-05
-1.5895164494850178e-05
-1.8612089263569942e-05
-2.4921332851590705e-05
-2.6200948525456624e-05
-2.481376640162125e-05
-2.4097404377698695e-05
-1.826718278152839e-05
-1.53580501205397e-05
-1.392374969100274e-05
-1.195783625007607e-05
-1.1283702804121276e-05
-7.401499090065045e-06
-5.8968570328943315e-06
-3.047988570870075e-06
-1.909500383590057e-06
-4.929346289372916e-06
-6.667553748229693e-06
-9.153421444807464e-06
-9.739273821196548e-06
-8.401579236760881e-06
-5.0528286124063015e-06
2.471839479767368e-07
-8.019878805498593e-08
2.2040296698833117e-08
-1.2451205293473322e-06
-5.8818984030040156e-06
-5.081552671981626e-06
-4.778432582952519e-06
-2.3433490810020885e-06
-6.674239898529777e-07
-1.8252654285788594e-06
-1.2796448345397948e-07
1.4373403018907993e-06
2.116351311087783e-06
1.6299325125146424e-06
6.358575319609372e-07
7.087021458573872e-07
3.0187135280357325e-07
4.960816170296312e-06
9.9128773740631e-06
1.2665294605085364e-05
1.5799064556176745e-05
1.5933356564801215e-05
1.4613489213388675e-05
1.0100092822540319e-05
4.44201958771373e-06
3.130704101295123e-06
4.3058452092736843e-07
1.214399674154265e-06
3.4952871601490187e-06
-1.3076146387902554e-07
-5.168106667952088e-06
-1.2170100148978236e-05
-1.5320248337502562e-05
-1.799915355604753e-05
-2.1800201011501485e-05
-2.072096901883924e-05
-2.013468031236698e-05
-2.0243102540007385e-05
-1.9262917533069412e-05
-1.9786996119819378e-05
-2.1396162765086046e-05
-2.569657414142057e-05
-2.770764177739693e-05
-3.0348324344231514e-05
-3.424241907623582e-05
-3.7782053198043286e-05
-4.7886298489174806e-05
-6.112240572520022e-05
-7.336557484904915e-05
-8.136284424153928e-05
-7.564735238929643e-05
-5.385568925930784e-05
-1.1949540464684105e-05
4.628976290632636e-05
0.00011883995841799333
0.00019631189911706315
0.00025282059169740023
0.0002698408535479757
0.00023236603942677903
0.00014644219271531256
4.7216185635079455e-05
-3.6695691676413844e-05
-8.363695479829403e-05
-9.567517088271416e-05
-8.750249628519668e-05
-6.730596555826196e-05
-5.131417151460482e-05
-3.708057386120345e-05
-2.726408331454877e-05
-2.4731695589252922e-05
-2.1614597812913416e-05
-2.277580227882936e-05
-2.3443398845302e-05
-2.2136094628422143e-05
-2.206571315355177e-05
-1.6942072818437737e-05
-1.388596541573861e-05
-1.2060509163802635e-05
-1.0272478164097265e-05
-1.2708231849956064e-05
-1.5627691709596547e-05
-2.032079851232993e-05
-1.991274592683112e-05
-1.754224746264299e-05
-1.6487880145632516e-05
-1.1000977679032076e-05
-8.60958760995345e-06
-9.317112812823325e-06
-9.813015878989972e-06
-9.929388056661992e-06
-7.987238916484785e-06
-8.053903115978756e-06
-5.4385562862080405e-06
-4.685253145453316e-06
-7.312450520657876e-06
-5.9038787298959505e-06
-5.545704880205449e-06
-1.8006009554483171e-06
3.7835227999494236e-06
7.119039992176113e-06
1.273753321129334e-05
1.5636696787169058e-05
2.0471162883950456e-05
2.8458588644753036e-05
3.3115837368313805e-05
3.7889926318257494e-05
3.846749001468197e-05
4.018670557570658e-05
4.3773505467470386e-05
4.5128403712624277e-05
4.8942900036763604e-05
4.8597932959637546e-05
4.403640252803598e-05
3.866649348083229e-05
3.1828599787786516e-05
2.793162155967366e-05
2.1232896870060358e-05
1.685062551359806e-05
1.1872634274823213e-05
4.75698982427275e-06
1.0324268941985792e-06
-3.927767977529584e-06
-7.775815333843639e-06
-1.1219780333249219e-05
-1.710500760054856e-05
-1.891220051675191e-05
-2.117800846690443e-05
-2.1380416171723482e-05
-1.9163962804213952e-05
-2.0174044152554416e-05
-2.077091102137274e-05
-2.121238867403008e-05
-1.7019511233229423e-05
-1.2454399609396205e-05
-1.1332776409744838e-05
-8.949176731221087e-06
-8.793173208232474e-06
-9.251962296730198e-06
-8.812104056232783e-06
-1.1102006794772024e-05
-1.1134319606753706e-05
-1.4361460273448756e-05
-1.3440618715776509e-05
-9.835204991759383e-06
-8.570425791276648e-06
-3.323346618344658e-06
-1.4406219861484715e-07
1.3519101003112155e-06
6.942959771549795e-07
-3.5523860333341872e-06
-3.676071855807095e-06
-6.054700747881725e-06
-5.00998174857159e-06
-2.4834185410327336e-06
-5.093387642318703e-06
-6.190742908529501e-06
-7.477841165837162e-06
-7.187740948211285e-06
-6.680649448753684e-06
-7.223634099773335e-06
-3.3448200156271923e-06
-2.0447267274903425e-06
2.6908162453764817e-07
2.6442145895089197e-06
1.9433726379247673e-06
5.2655487934316625e-06
6.1717643120573484e-06
8.043995990192343e-06
9.703959619855596e-06
9.057536601631e-06
1.1271910068444413e-05
1.1487973551993491e-05
1.2449259315872041e-05
1.2979572886706592e-05
9.683273276550608e-06
8.987493060885754e-06
6.407467139979417e-06
3.569736577446747e-06
7.911640409474785e-07
-5.134756690949871e-06
-8.979927940799826e-06
-1.5451163733359863e-05
-1.8278945447036676e-05
-1.810763183129893e-05
-2.122020077877096e-05
-1.9864725970819563e-05
-1.8139886094559188e-05
-2.0242733342001884e-05
-2.399473902414684e-05
-2.782819183266838e-05
-2.8825207436966593e-05
-3.144278372246845e-05
-2.7683420398716407e-05
-2.451045838824939e-05
-3.0250629890815617e-05
-3.828407409400825e-05
-5.299897429722478e-05
-7.1435018298871e-05
-8.361186905858631e-05
-8.630350941984943e-05
-6.927222523245291e-05
-3.2920937201197376e-05
2.4052329990809085e-05
9.58841767442209e-05
0.00017036779314594241
0.00023381999352523053
0.000259508760962035
0.00023912750140198114
0.00017370509829106595
7.818657161351439e-05
-9.014241811655666e-06
-6.714495896176231e-05
-9.103821571443405e-05
-8.927311660045234e-05
-7.497628939745482e-05
-5.574793277673962e-05
-4.271915912568147e-05
-3.304345005972209e-05
-2.7051747679252003e-05
-2.5711687044349674e-05
-2.3401657870181225e-05
-2.3451340837254975e-05
-2.14565985174886e-05
-1.9974060478489264e-05
-2.2062714435833186e-05
-2.0380389003094024e-05
-1.9944143673455983e-05
-1.8113570092737064e-05
-1.411366400816405e-05
-1.4086942883295706e-05
-1.4628871667810017e-05
-1.6084749631772866e-05
-1.4404020419078734e-05
-1.2280316525448143e-05
-1.2222137968365132e-05
-9.086699890303862e-06
-8.813005592855916e-06
-9.355646511721716e-06
-8.633464062768326e-06
-9.587394742993638e-06
-6.347373357584729e-06
-5.417652630512748e-06
-3.1453799920200254e-06
-2.2015029799149488e-07
-1.5488664644180972e-06
-1.1127913808195444e-06
1.3101392255521205e-06
5.098592396279855e-06
9.14160926868135e-06
1.2848540166032762e-05
1.7533387449475413e-05
1.9980500383098843e-05
2.4088807776934118e-05
2.9989125891916046e-05
3.40718397069395e-05
3.7313776317660086e-05
3.705377764617879e-05
3.7749987370716553e-05
3.955440217850992e-05
4.065754950488554e-05
4.604689792131467e-05
4.842351586376026e-05
4.717647959751048e-05
4.275419047417017e-05
3.406340806577646e-05
2.7864133073762787e-05
1.8317442709303577e-05
9.813987844609073e-06
4.9193357085641765e-06
-1.3804889817947696e-06
-5.306703258156631e-06
-8.925627355438337e-06
-1.2350692429663468e-05
-1.6010692149848182e-05
-2.0038126137933432e-05
-1.9535167496087524e-05
-2.0541174194477207e-05
-1.9424507513576827e-05
-1.5126675975807302e-05
-1.5159386862251267e-05
-1.5739360549105186e-05
-1.7332871095732116e-05
-1.678076790767591e-05
-1.5874487928613235e-05
-1.5251853881181887e-05
-1.269151874794261e-05
-1.3249957248717692e-05
-1.4912719564108556e-05
-1.5051801938170684e-05
-1.56288856487663e-05
-1.2542913395918731e-05
-1.1935821873976238e-05
-9.818141847972583e-06
-7.260812026288477e-06
-6.622855380555848e-06
-1.7824750671024958e-06
5.738453978665348e-07
1.3618048342323164e-06
1.781527146249573e-06
-2.7064923528996587e-06
-4.3985003230773145e-06
-7.055596995542146e-06
-8.767852250457508e-06
-7.516847119859449e-06
-7.149396424210863e-06
-4.745594253563468e-06
-3.5018246649087814e-06
-1.7050433598342352e-07
2.6158256218877796e-06
2.2381723852049618e-06
3.826184524768905e-06
2.2615748775933753e-06
2.883500656025717e-07
-1.3159748277757899e-06
-2.909174838805484e-06
2.5723670091792883e-06
7.188115546341578e-06
1.1753946409953642e-05
1.4515641623802367e-05
1.0990321129611402e-05
7.299632613921858e-06
4.419104072894697e-06
4.8508554186810215e-06
7.69096368458122e-06
7.5705947324422596e-06
9.589506987595087e-06
6.8739116159122204e-06
3.1629904810870357e-06
8.603881838098459e-07
-6.8322383413033094e-06
-1.2747680273150763e-05
-1.8352298980062187e-05
-1.9604803526362957e-05
-1.8763684693112737e-05
-1.9957278823312663e-05
-1.864027620968045e-05
-2.0048371482062066e-05
-2.0865243300249858e-05
-2.090028914381037e-05
-2.2029142201063223e-05
-1.9896244054962153e-05
-2.2959149305279425e-05
-2.471653823477027e-05
-2.6415791012368572e-05
-3.408547979688592e-05
-4.229610146921914e-05
-5.469671833679968e-05
-6.806015386473518e-05
-7.444137685297392e-05
-6.963670313098191e-05
-4.4825419990957016e-05
-4.785445526067633e-06
5.192974401779793e-05
0.00012537635609533027
0.0001993695490796199
0.0002518248243177368
0.00025396405902711194
0.00020372127391965478
0.00011172241636359104
7.213958667762199e-06
-6.530128769099974e-05
-0.00010038720284910596
-0.00010523896014547063
-8.955356838669104e-05
-6.840760249815503e-05
-4.8255833235089085e-05
-3.7077734248214256e-05
-3.0260977439411363e-05
-2.7379829077744944e-05
-2.8968081380753574e-05
-2.545849963553337e-05
-2.021417839159767e-05
-1.6562428413635644e-05
-1.5179414845079009e-05
-1.788913056088859e-05
-1.7737145867613435e-05
-1.785574875157181e-05
-1.4643938811786938e-05
-1.1058981215228414e-05
-1.2577102268096496e-05
-1.1766737088692025e-05
-1.354076243842428e-05
-1.1611569732394855e-05
-8.153387909715093e-06
-8.92817797648604e-06
-7.494456724543852e-06
-8.506773383487598e-06
-1.11136940859069e-05
-1.1972852462349692e-05
-1.321045959912226e-05
-9.977073432310135e-06
-7.32571669459503e-06
-1.7858046135188488e-06
3.3757406185941363e-06
5.685350345174811e-06
9.644837348332658e-06
8.937338975556486e-06
9.296095186073217e-06
1.2306804592299159e-05
1.4104933597991476e-05
2.0841768332502397e-05
2.601262167445384e-05
3.0171495779995894e-05
3.5905624429233285e-05
4.019158581058946e-05
4.385783677207655e-05
4.383739701552258e-05
4.5570915858661465e-05
4.5388415799152426e-05
4.220166874802089e-05
4.112759620511497e-05
3.7983385311690654e-05
3.5095627424652776e-05
3.31007714748921e-05
2.8885618803542457e-05
2.8999742994528788e-05
2.3470904807254556e-05
1.600567100012995e-05
1.2116080142732244e-05
3.450770293511596e-06
-5.287115300234291e-06
-1.2750558767038456e-05
-1.8791676097862364e-05
-2.229306289791566e-05
-2.314628852673195e-05
-1.9944810219385545e-05
-2.065986853949653e-05
-2.0816340281726298e-05
-2.0599468598447856e-05
-2.212343264318406e-05
-1.9369325855222996e-05
-1.872060511232121e-05
-1.701765415873524e-05
-1.4971689211051853e-05
-1.7018720257055975e-05
-1.4708517369399488e-05
-1.2245257892118389e-05
-1.1991433439106913e-05
-1.1703362247317273e-05
-1.2793935297850112e-05
-1.26318082607213e-05
-1.545724387597147e-05
-1.4106269702551799e-05
-1.0329079998427915e-05
-9.056865621914767e-06
-4.919374021028489e-06
-3.2981267281684268e-06
-2.9538212515944906e-06
-1.3978308288642438e-06
-1.015775694668264e-06
1.5660550616303226e-06
-2.0073811128895613e-06
-5.9839018717866566e-06
-6.69117065399405e-06
-8.773780734827596e-06
-7.073788708567008e-06
-5.776366037935077e-06
-4.695863140113943e-06
-4.389843923036096e-06
-4.821173547497892e-06
-7.062288887027535e-08
4.584194130075048e-06
7.759842844734521e-06
1.1125656953936414e-05
9.963301238258282e-06
1.1791885640377586e-05
9.85901749572804e-06
9.212390523316571e-06
1.1423953196754155e-05
1.0084710424962395e-05
1.276322768717364e-05
1.3450718086005509e-05
1.3269365808810107e-05
1.3752444544934406e-05
1.0085819496907789e-05
1.1361938561549323e-05
7.438089085098909e-06
6.572886945832579e-07
-4.382281645121111e-06
-1.4117972341409768e-05
-2.009042839290487e-05
-2.419641123196925e-05
-2.4255458185962198e-05
-2.3024926974812843e-05
-2.5094302884554054e-05
-2.151352771306847e-05
-1.91516475069875e-05
-1.9091251431291312e-05
-1.876774365427991e-05
-2.2719079538546794e-05
-2.4755740184900787e-05
-2.7936904530179163e-05
-2.8074879026007693e-05
-2.8024616710808914e-05
-3.386408479855163e-05
-4.118739798286697e-05
-5.258034360622332e-05
-6.46925772684881e-05
-6.935633092552962e-05
-6.358083879831611e-05
-3.897774666938858e-05
1.3099941611471877e-06
5.778533261491248e-05
0.00012869962000650048
0.0002014270432368903
0.00025592439124011435
0.00026324209954964317
0.00021782804333270178
0.00012645684580547822
1.7309180122992984e-05
-6.452643509646805e-05
-0.0001095936692649957
-0.00011983315124552973
-0.00010540987688045789
-8.539256356243641e-05
-6.174101321221315e-05
-4.37739608969423e-05
-3.3744474478680786e-05
-2.5476723749306984e-05
-2.350639402948218e-05
-2.2966569190430164e-05
-2.180963048203921e-05
-2.0512819844498154e-05
-1.795824380224076e-05
-1.5586692768465582e-05
-1.1072354482166702e-05
-1.0650707508830237e-05
-1.2488346669670136e-05
-1.3685352257652994e-05
-1.5088081170233636e-05
-1.2786017691723828e-05
-1.1617196889801562e-05
-1.0432381031932891e-05
-1.0010576545482763e-05
-1.2772513798608998e-05
-1.152518308344952e-05
-1.1205698683625087e-05
-1.3653462758611568e-05
-1.4958627673422598e-05
-1.7227366527095e-05
-1.3488759975643916e-05
-8.867942540291551e-06
-3.3765198281798803e-06
7.888950790402305e-07
4.334499408287229e-07
1.935619991400017e-06
3.4348166764175403e-06
7.198796708962618e-06
1.2555525472635054e-05
1.3305617926562263e-05
1.6694526948413113e-05
1.939581153465042e-05
2.433718009342556e-05
3.430704902029902e-05
4.068051646299864e-05
4.605045211292236e-05
4.7104360760386044e-05
4.8485868546777056e-05
5.120954205040107e-05
5.024986506896312e-05
5.0178279025203665e-05
4.623600221975721e-05
3.975262154654047e-05
3.498656894862506e-05
2.8068752783383388e-05
2.4918977828747302e-05
1.781291871338908e-05
1.0157676911148883e-05
7.662195287139184e-06
2.8259476039238507e-06
4.1738167055882514e-07
-3.936563643947011e-06
-1.041950844182793e-05
-1.681809357023667e-05
-2.384457587822908e-05
-2.3938988022109697e-05
-2.477226433938995e-05
-2.3773878581323515e-05
-1.996218242084069e-05
-2.0024479510993842e-05
-1.9044138184654003e-05
-2.0464765839278698e-05
-2.0243661538188462e-05
-1.69649079566625e-05
-1.6190101234769827e-05
-1.2196814623166574e-05
-1.0349132594456023e-05
-1.3081540146231418e-05
-1.4856913310268283e-05
-1.6660924984535086e-05
-1.4136679283183184e-05
-1.2113042714645417e-05
-9.794045467970136e-06
-8.234184235789144e-06
-1.0028630583747145e-05
-1.0113980010828527e-05
-1.2055951799538889e-05
-1.0712133530432766e-05
-5.520585204976669e-06
-2.7809890070784604e-06
1.9062380260947975e-06
2.374466646415385e-06
1.92377655139353e-06
2.7297159022054984e-06
2.1617577203869587e-06
3.417953053030942e-06
-3.1885855378277483e-07
-2.1082928469695617e-06
-3.365878001204692e-06
-7.507072382395563e-06
-4.458266005258338e-06
-9.94949402866041e-07
1.9468014329504513e-06
7.550553618784761e-06
7.55319030076862e-06
6.7415919602353824e-06
4.266788891982287e-06
2.3010575773696473e-06
5.905491548219288e-06
9.104793207370676e-06
1.4208222580691654e-05
1.6220486372731102e-05
1.5598732545640814e-05
1.5932115104533295e-05
1.2457906791496498e-05
1.1612304319896793e-05
6.728284574819554e-06
-3.611294232541695e-07
-3.84887442805848e-06
-8.448475171007885e-06
-1.0744014275587688e-05
-1.2180464011635195e-05
-1.3351146719742246e-05
-1.6364844725558214e-05
-2.2734066362772865e-05
-2.4363452496345417e-05
-2.5493679572718975e-05
-2.4734588009778236e-05
-2.0859045491761208e-05
-2.083071882452714e-05
-1.8811314362210396e-05
-2.056391610949504e-05
-2.2521050311752333e-05
-2.3496864912431192e-05
-2.8980185106775025e-05
-3.492681435091072e-05
-4.486475853582306e-05
-5.659523128542787e-05
-6.626139662557762e-05
-7.566130653913206e-05
-7.44032535635597e-05
-6.363227026895402e-05
-3.6224235145709827e-05
1.196447323081884e-05
7.339322610278032e-05
0.0001482358351267976
0.00021805008105957313
0.00026067594160394947
0.00025709624100045403
0.00019963884489015982
0.00010749580241053991
1.0712645973853796e-05
-6.164757496662787e-05
-9.762772350541127e-05
-0.00010374276001812177
-8.887856063211075e-05
-7.111581925300925e-05
-5.271752326052592e-05
-3.661502324803223e-05
-2.948213096942709e-05
-2.519540544199117e-05
-2.5297999513895775e-05
-2.5813909985572536e-05
-2.3764785055391258e-05
-2.1280998623751657e-05
-1.3780929748463677e-05
-1.085898514929795e-05
-1.0859486394565465e-05
-1.0245237376693694e-05
-1.3367611302328442e-05
-1.5512113463955757e-05
-1.8170938290040795e-05
-1.559090384262163e-05
-1.3461355024446675e-05
-1.573094101559036e-05
-1.3535822290577926e-05
-1.5175664771049924e-05
-1.806117830938092e-05
-1.4886890880916326e-05
-1.1380098669633298e-05
-4.852292022405891e-06
-1.8640340044839832e-06
-4.158895876571478e-07
4.841464829041797e-07
-1.988980045553035e-06
-8.439242265012581e-07
1.135775676175399e-06
6.088902750889247e-07
2.4143183168234827e-06
4.114304374525091e-06
9.433167406314169e-06
1.5020549767541524e-05
2.057855311932144e-05
2.7206845004457136e-05
2.9902633173151116e-05
3.3182730589942366e-05
3.405657849953059e-05
3.560622911891187e-05
3.754448789550224e-05
3.599253591346496e-05
3.933336023465017e-05
4.282601372551653e-05
4.21290687313558e-05
4.2743497147057496e-05
3.9775936556907254e-05
3.734165852620208e-05
3.134828324391492e-05
2.553203597699394e-05
2.1212521062352607e-05
1.2608969143457216e-05
7.0546636266044516e-06
8.100962531898404e-07
-6.7647026185113646e-06
-1.162776044338898e-05
-1.6978448002191726e-05
-1.816712227764583e-05
-1.9275723673217726e-05
-1.942445254599079e-05
-1.5749998738101567e-05
-1.5079876789059199e-05
-1.3800515205275588e-05
-1.5325041999858513e-05
-1.685921500893528e-05
-1.7129997161191568e-05
-1.974431518192432e-05
-1.7106285156387457e-05
-1.4841428878753504e-05
-1.525333868812595e-05
-1.2405473682974844e-05
-1.1299389996111131e-05
-8.701797924004495e-06
-9.809777282043797e-06
-1.1396405966479506e-05
-1.052568387649444e-05
-1.1837771751288528e-05
-9.975318960186996e-06
-9.314545081906545e-06
-1.0468980690347962e-05
-7.680505802909465e-06
-5.7929868262363016e-06
-9.539994607621338e-07
1.447211843697005e-07
-1.0259437885906664e-06
-1.7642078091739677e-06
-4.910791062684439e-06
-3.699126580158918e-06
-2.442744744257652e-06
-1.2628547665372025e-06
1.0999258392985212e-06
-9.736781976243947e-07
-2.3565321498608682e-06
-3.7297623407539504e-06
-5.329398049980227e-06
-4.013810837477649e-06
-3.369843284417584e-06
-2.471387574587425e-07
1.6495781096637074e-06
2.23204000349142e-06
3.0618407436122652e-06
2.8511583423096454e-06
5.482528024458588e-06
6.692318606837944e-06
7.830526215002465e-06
1.045644188479855e-05
1.0867680089177156e-05
1.5079797265116213e-05
1.679711436963771e-05
1.516957991043455e-05
1.3415011210327066e-05
6.366393677126325e-06
1.910328933263372e-06
-5.707312880076643e-07
-1.9203593524252938e-06
-2.689251118681568e-06
-7.70254899862266e-06
-1.1145763721742696e-05
-1.5118898147647997e-05
-1.8295103870968887e-05
-1.761147490242365e-05
-1.83684522880867e-05
-1.7663952064594923e-05
-1.9664553917664307e-05
-2.246089633217707e-05
-2.4346355417037557e-05
-2.8891985721202218e-05
-2.987661622455562e-05
-2.987670740139947e-05
-3.044782118877265e-05
-2.873890292676151e-05
-3.340545316632415e-05
-4.06329727411503e-05
-5.4087293051452434e-05
-7.04648979308331e-05
-7.966443365603482e-05
-8.2011138033522e-05
-6.675991539850656e-05
-3.062155349198292e-05
2.349897624753794e-05
9.339291017340656e-05
0.0001684860608861527
0.0002364064520179454
0.0002700821443113455
0.0002520228422326909
0.00018866238514192446
9.16145448854877e-05
2.963078600259905e-07
-6.197439989819031e-05
-9.149667158681041e-05
-9.285978109119242e-05
-8.328630246978719e-05
-6.819699456173112e-05
-5.437269180674775e-05
-4.389318212361104e-05
-3.2138137669335265e-05
-2.5608202065541263e-05
-1.949946675949832e-05
-1.6399401545186265e-05
-1.68917066503127e-05
-1.5608845842507435e-05
-1.906321432443292e-05
-2.113334875275541e-05
-2.2819774301297002e-05
-2.2852431470710144e-05
-1.9093915170742548e-05
-1.8752049982140306e-05
-1.5472958523332636e-05
-1.2670613500631589e-05
-1.2715536342966516e-05
-1.0532708245136746e-05
-1.1830117387034988e-05
-1.2099340608529019e-05
-1.5457078177405492e-05
-1.782643164460751e-05
-1.4923577793979348e-05
-1.2636228632345592e-05
-7.348081169311627e-06
-2.045787880433636e-06
-6.012871835991973e-07
3.139580257993657e-07
8.647475624457002e-08
3.96859820739337e-06
6.771664061488991e-06
9.368719759095256e-06
1.2696517273980135e-05
9.493795062098798e-06
9.595265737516456e-06
1.301161051969757e-05
2.0555426715418434e-05
3.0872153729433194e-05
3.610370720252831e-05
4.134225554253135e-05
4.286837969402768e-05
4.3125137267452374e-05
4.537725550335381e-05
4.488947598701998e-05
4.7686682535186264e-05
4.6114539259178855e-05
4.3530358027510374e-05
4.261341791789164e-05
3.624248677169817e-05
2.9274986957261717e-05
2.0473021265843272e-05
1.0627550921071816e-05
4.0795509335112e-06
-2.1661062987732294e-06
-3.819778271463292e-06
-6.321521198060509e-06
-1.0288875216701854e-05
-1.077729018561513e-05
-1.4853668346859195e-05
-1.919447703357946e-05
-2.3477112279124412e-05
-2.5584892625829525e-05
-2.5252592649849248e-05
-2.6388728542769968e-05
-2.2682729195366846e-05
-1.788667356095175e-05
-1.5768027935791906e-05
-1.2586492687205464e-05
-1.3394363577390322e-05
-1.4557237818735302e-05
-1.5259356132446555e-05
-1.275118131616182e-05
-7.379085673164809e-06
-6.541602374454669e-06
-6.069303879030485e-06
-7.683371165967401e-06
-9.131349941071676e-06
-8.154850718256057e-06
-8.543688636564184e-06
-6.037210312115349e-06
-5.722782532302517e-06
-4.922170319332508e-06
-1.5083143694027967e-06
-1.2905570656585041e-06
-8.81860842127935e-07
-2.5821979079410085e-06
-2.56871288684124e-06
-1.8876319245464401e-06
-3.6027041687702877e-06
-1.3217014611655031e-06
-7.009753062447999e-07
-2.5109573016379727e-06
-2.8111703045397007e-06
-6.82074329461102e-06
-6.4275764657395484e-06
-5.403407044468622e-06
-2.895258432999981e-06
2.0538282115012407e-06
3.1278330538953014e-06
4.570521014102269e-06
3.4207948260700505e-06
6.080420007492648e-07
-7.46256603179063e-07
-3.822783355644788e-06
-1.8889807620325882e-06
2.2907818788553413e-06
6.0863170006086875e-06
1.1091956139352988e-05
1.0442435950608342e-05
9.43941108744184e-06
8.89861195219055e-06
1.0151221374599118e-05
1.2301427091188089e-05
1.0193449099915597e-05
9.205200740325381e-06
6.197929963036586e-06
1.7647105892137915e-06
9.950130674951652e-07
-2.8569801315825316e-06
-4.610810776739527e-06
-9.56448099032059e-06
-1.551356984919039e-05
-1.802789381599723e-05
-2.247418518663835e-05
-2.142168392538224e-05
-2.0326999106146104e-05
-2.132930319476145e-05
-2.1134112273557548e-05
-2.4081262324671115e-05
-2.48348429181533e-05
-2.607034662105434e-05
-2.787239202461933e-05
-2.8767756134584488e-05
-3.331952791540971e-05
-4.003378614925168e-05
-4.9685241265251534e-05
-5.9287263979967975e-05
-6.76120359912602e-05
-7.540306637565664e-05
-6.951270449917502e-05
-4.573129683649313e-05
-5.962665795777866e-06
5.160435148354736e-05
0.00011937549379581469
0.0001913427155386671
0.00024637214033873533
0.00026333477921980375
0.00023139778056702198
0.00014992601916219428
4.822855066777265e-05
-3.826409067642089e-05
-8.99950192660981e-05
-0.00010316250455844056
-9.564851103505134e-05
-7.437911534680097e-05
-5.429512611954124e-05
-4.090995184924395e-05
-2.8910077787713817e-05
-2.635152594621104e-05
-2.5996330634825426e-05
-2.4349382215405058e-05
-2.165064404380246e-05
-1.6855764158663078e-05
-1.672291506338297e-05
-1.5740426420052245e-05
-1.5935977103254118e-05
-1.804010048545024e-05
-1.5448308602117322e-05
-1.4221890012322547e-05
-1.0509283129067626e-05
-9.134744857419719e-06
-9.665846448569937e-06
-9.709693927106855e-06
-1.4161524006794934e-05
-1.6248574183919118e-05
-1.6327094897405914e-05
-1.757938304081108e-05
-1.4766847243663506e-05
-1.4906258968494512e-05
-1.556246235168146e-05
-1.7708594270970934e-05
-1.853807356155812e-05
-1.3023324868299824e-05
-7.732967958418158e-06
4.975630645276397e-07
6.479214675891853e-06
8.738949588860123e-06
1.1876490418671892e-05
1.3034946221068822e-05
1.8367409722941375e-05
2.3721407785615156e-05
2.5962158474612806e-05
2.809086748811751e-05
2.687803032586089e-05
3.01058646527963e-05
3.37843533202431e-05
3.726050238128664e-05
4.014309985223008e-05
3.825093222076248e-05
3.926603199033707e-05
4.1434408387885924e-05
4.3511876299362484e-05
4.737483527605946e-05
4.5840392033369426e-05
4.149367435957174e-05
3.352273887458068e-05
2.311764961859808e-05
1.5185507095338835e-05
6.94268459255909e-06
1.7788300397114654e-06
-1.5580415038130013e-06
-4.0774995113679324e-06
-6.773374536805932e-06
-1.2184101649381773e-05
-1.4361704359089345e-05
-1.7624772112867504e-05
-2.1237135740648228e-05
-2.1740008151027723e-05
-2.4790144379949197e-05
-2.3645531314286927e-05
-2.3291137381420413e-05
-2.357607269232176e-05
-2.0061912721303088e-05
-1.7713196939439513e-05
-1.3790318348583241e-05
-9.476227774030122e-06
-8.450831842310436e-06
-8.24769381324586e-06
-1.0271620112689561e-05
-9.970695430183696e-06
-1.1333992006257176e-05
-1.2357780747151992e-05
-9.94075639937364e-06
-9.891599574984866e-06
-8.028153729355836e-06
-6.396047979251307e-06
-5.072644569281692e-06
-3.5202249932808627e-06
-5.1328522090443585e-06
-2.5980218083532236e-06
-8.462723144475603e-08
-1.2479297879508522e-06
-1.0600291489026858e-06
-4.642186070213938e-06
-4.8882860141929996e-06
-3.2956680229290214e-06
-8.705075060788658e-07
3.08352667843792e-06
1.0479203069735377e-06
-1.2110108968954592e-06
-3.144680249533849e-06
-5.220227876634453e-06
-5.608665446743544e-06
-6.7731622834799055e-06
-4.366670736999367e-06
-3.4587363302307494e-06
-3.563163772923872e-06
-9.303341244049079e-07
-7.02795830420655e-07
1.967943376257608e-06
4.256877673469717e-06
5.545670205719944e-06
6.738676688655687e-06
4.115162084872281e-06
4.221147094085609e-06
6.133604358637967e-06
6.661166310095723e-06
7.815878120709385e-06
8.547327809083072e-06
1.1548051190857223e-05
1.0943937297724915e-05
8.882515146524383e-06
7.82003536414777e-06
3.8660918448840675e-06
2.1897928377256903e-06
7.057313951008837e-07
-2.3650096068195126e-06
-6.50510293098705e-06
-1.2849871950493252e-05
-1.6558159700252872e-05
-2.152871365979081e-05
-2.4471604547215975e-05
-2.5190111898609757e-05
-2.9327209347229655e-05
-2.915720602914007e-05
-2.848377300779248e-05
-2.6897622149135714e-05
-2.368468756230868e-05
-2.593812200757384e-05
-2.7772518251367728e-05
-3.139654899086963e-05
-3.9121294946653506e-05
-4.6352481945177715e-05
-5.6792101702285436e-05
-6.448138674386428e-05
-6.785940684039815e-05
-6.0341789207996044e-05
-3.441463553599533e-05
6.022584273068787e-06
6.491845545042452e-05
0.0001353880956003195
0.00020447373657361823
0.00025484290682697974
0.0002578518037239519
0.00021167018797996207
0.00012236843332402714
1.7939804649813595e-05
-5.988319009020415e-05
-0.00010570566109890933
-0.00011651828458525415
-0.00010262279545258934
-8.036750034534634e-05
-5.7248945495302905e-05
-4.257337809576711e-05
-3.3013588335961686e-05
-2.7993768867418112e-05
-2.748477635350355e-05
-2.4815790538923466e-05
-2.4311413028499373e-05
-2.1928957721684128e-05
-1.8641388862761232e-05
-1.556891913878644e-05
-1.2741318244025024e-05
-1.3797912004065438e-05
-1.347106842786161e-05
-1.2365035559014359e-05
-1.1338059096033248e-05
-6.8161668878019555e-06
-6.783896935758094e-06
-7.060125653879368e-06
-7.395882960281597e-06
-9.134645665653807e-06
-8.62803540258028e-06
-9.554262192068563e-06
-8.640877922516665e-06
-8.363359597751696e-06
-8.222813789870997e-06
-8.740708324239677e-06
-1.4031464104391489e-05
-1.4668279732177325e-05
-1.2469541843529441e-05
-9.666962057508499e-06
-1.9696813069458585e-06
3.7829038319614483e-06
9.990468527121266e-06
1.5176305055319972e-05
1.9364164074886503e-05
2.4842222387633228e-05
2.7539200630144478e-05
3.12263595674267e-05
3.4522959481364524e-05
3.706960853833152e-05
4.091201623168672e-05
4.228394476513131e-05
4.4779941447359306e-05
4.507616824867e-05
4.367050473774725e-05
4.670926961125588e-05
4.704820855749858e-05
4.6582799200223235e-05
4.446289034376605e-05
3.827813407042413e-05
3.06146378648009e-05
2.2050614802537893e-05
1.6855186402153777e-05
1.141215903999182e-05
5.3753739734929695e-06
4.3837684415848344e-07
-6.949436112790863e-06
-1.1403492692352302e-05
-1.7189092545777385e-05
-2.3218010312575643e-05
-2.4566357012645312e-05
-2.786966263101931e-05
-2.6648070786450262e-05
-2.3832786268940254e-05
-2.34577305491257e-05
-1.9524359686329262e-05
-1.8146482375414053e-05
-1.6847309495915397e-05
-1.6867022452515812e-05
-1.958070060936734e-05
-1.824912527581546e-05
-1.812350342333957e-05
-1.5999766276308947e-05
-1.2400220441577403e-05
-9.109232109949517e-06
-5.896894322177104e-06
-8.040041166168521e-06
-6.35832594753083e-06
-3.688062349738175e-06
-3.898487250353355e-06
-1.693656088264106e-06
-5.318348314631294e-06
-9.020102709200728e-06
-1.0668143033853994e-05
-1.064260942484907e-05
-5.057494547600072e-06
-3.085198613916873e-06
-6.817109579060343e-07
1.0043962106465187e-06
-1.1512244100231328e-06
-2.26843462769466e-06
-5.863417754881084e-06
-6.798025992793555e-06
-7.54799640390047e-06
-7.811433818005753e-06
-3.253966781358031e-06
-1.526892788206169e-06
1.0799905680869415e-06
3.0412439286919835e-06
3.272869491866004e-06
4.114985699743556e-06
8.093908832051966e-07
2.0373481675051153e-06
5.605785190709867e-06
4.951575988343393e-06
7.493504369904258e-06
7.001594838129677e-06
8.137655015616474e-06
8.724970712137292e-06
5.996374852657027e-06
6.861493659471307e-06
7.094695206433244e-06
8.96151436791115e-06
1.33919536438043e-05
1.45474060673223e-05
1.2193307043162349e-05
4.971123132690991e-06
-8.403100650866691e-07
-7.265564818226267e-06
-1.478594600712313e-05
-1.6987307105864602e-05
-2.131257389237362e-05
-2.353196185822526e-05
-2.3290224078209576e-05
-2.3083478197349905e-05
-2.2132095580218447e-05
-2.5404114182947524e-05
-2.532270127630909e-05
-2.519171391668351e-05
-2.70883091388896e-05
-2.5905050790697715e-05
-2.8905251099331508e-05
-3.1733923265164776e-05
-3.902314841752741e-05
-5.241984047188453e-05
-6.433417462403668e-05
-7.554214249694269e-05
-7.492490135518892e-05
-5.710729487873323e-05
-2.5379019291449367e-05
2.4288424469887104e-05
8.548935704766336e-05
0.0001566298789157372
0.00022319013447713587
0.0002590245492797294
0.000246729470234186
0.0001816764170712304
8.182377962384635e-05
-1.6644800098220003e-05
-8.237628577489886e-05
-0.00010847142516468011
-0.00010660408560170254
-8.601530879559505e-05
-6.285384245074965e-05
-4.733300323778167e-05
-3.43428437190596e-05
-2.938404747965251e-05
-2.5351380486426933e-05
-2.2229259457162698e-05
-1.9656024903724756e-05
-1.548879737356401e-05
-1.5390789087632584e-05
-1.3922731511684105e-05
-1.3506259904261242e-05
-1.4178066294334712e-05
-1.2490774111029168e-05
-1.437918984947828e-05
-1.3674602996616159e-05
-1.273909845167509e-05
-1.20563903465154e-05
-8.471144894883764e-06
-8.001461253570596e-06
-8.870800400018197e-06
-1.0692162334180466e-05
-1.2070456364199345e-05
-1.2801667310213816e-05
-1.659390670738503e-05
-1.584758769013206e-05
-1.4005350635670766e-05
-1.387829513532779e-05
-8.732205685646477e-06
-6.4803768964338815e-06
-3.2605177011646447e-06
-2.5508126100248774e-07
2.1261910774228454e-06
8.388111098156514e-06
1.1313752452224435e-05
1.5638418290109257e-05
2.0891276165002637e-05
2.298654152355084e-05
2.7403641865930695e-05
3.0123919827929058e-05
3.2180862319819425e-05
3.414478220520323e-05
3.622448406304102e-05
4.1751792139166355e-05
4.507827139832443e-05
4.880131348272698e-05
5.00388731552448e-05
5.197299026349356e-05
5.282961711827738e-05
4.595927350692364e-05
4.146118249082065e-05
3.5953699125457206e-05
2.4900748996969924e-05
1.8198369104993617e-05
8.950960705078614e-06
-3.681515181597206e-07
-5.9073221905237006e-06
-9.785964550701465e-06
-1.20164988857141e-05
-1.6200222660245345e-05
-1.7362875837534375e-05
-1.745558614629772e-05
-1.875669079254294e-05
-1.6720467215236567e-05
-1.814607583128236e-05
-1.8710917743192113e-05
-1.9520990008459194e-05
-2.100907619251302e-05
-1.9216211285311147e-05
-2.07607078550609e-05
-2.061196988734082e-05
-1.9495138133152068e-05
-1.8685840757370897e-05
-1.3569985412686947e-05
-1.1088856581409345e-05
-7.0112106413944275e-06
-3.1945878617989365e-06
-4.408841732583824e-06
-3.849649715448322e-06
-6.725702178300708e-06
-7.657554533579969e-06
-7.247137602917064e-06
-8.038479791139252e-06
-5.6579563647574105e-06
-5.945130624240846e-06
-5.7856886428453436e-06
-3.354604075411771e-06
-3.793480686908879e-06
-3.5640189821606327e-06
-4.288736192847864e-06
-3.839569728825154e-06
-3.7205970784270903e-06
-2.549276416630164e-06
8.300025911012199e-07
-1.5401701602968387e-06
-3.081386751091486e-06
-3.668065858164482e-06
-5.098241786072322e-06
-5.047497154464509e-06
-6.804324812037521e-06
-4.179746213139879e-06
1.4772209624425159e-06
4.99742293413874e-06
9.385599241795717e-06
9.061037701485475e-06
7.228427705285867e-06
6.214780967184197e-06
6.751160981366411e-06
8.732881212836219e-06
7.067334991006646e-06
7.239808724079921e-06
7.51836597601141e-06
5.2622139605773555e-06
6.68083976052003e-06
5.3986182138032746e-06
5.1385642336754245e-06
4.5930446503916755e-06
3.120873145689984e-06
2.4293757405757788e-06
-2.2692494781040295e-06
-6.6692467726170435e-06
-1.0546332248395629e-05
-1.4071062480525143e-05
-1.596087054167583e-05
-2.06431980132038e-05
-2.1528508341361885e-05
-2.1534111738219508e-05
-2.102362992673079e-05
-1.6758926733473345e-05
-1.8746196019492345e-05
-2.1082156877128e-05
-2.4508108992904454e-05
-2.8665715944953263e-05
-2.9115902577814268e-05
-3.239535772081581e-05
-3.621605173975695e-05
-4.623523221880532e-05
-6.116586587268102e-05
-7.156665981256083e-05
-7.973738843247702e-05
-7.397614234605498e-05
-5.209661384242281e-05
-1.4804963939241134e-05
4.19655568748567e-05
0.00010743626404519091
0.00017904318093542315
0.00023820649181516274
0.0002603588968668191
0.00023335571552252077
0.00015607222729840942
5.7782525459515455e-05
-2.7589987610099342e-05
-8.179530556162717e-05
-9.601751793297808e-05
-8.782573962662354e-05
-7.028860079572041e-05
-5.349050439917846e-05
-4.090933111910999e-05
-3.188856891256364e-05
-3.067487267571778e-05
-2.793023730873756e-05
-2.4920766179548082e-05
-2.5148119789264456e-05
-2.1904878735767852e-05
-2.0887812411274354e-05
-1.9698244159371825e-05
-1.8425092264351406e-05
-1.7106169480030076e-05
-1.3916370619426743e-05
-1.323793088658931e-05
-1.3468841132180387e-05
-1.4605116348320735e-05
-1.5653265563742025e-05
-1.495524543315696e-05
-1.6030450240123173e-05
-1.27095453876791e-05
-6.805771590734366e-06
-4.004339871244156e-06
-1.448160105610441e-06
-3.74990020191035e-06
-6.264347291562444e-06
-1.172011917560667e-05
-1.5579965292999987e-05
-1.38988775688631e-05
-1.2922041435103893e-05
-7.571383378035534e-06
4.306593837100081e-07
5.330055330432515e-06
1.0295488209521864e-05
1.2719228436708363e-05
1.496586378380016e-05
1.8242339820062625e-05
2.1185983484883764e-05
2.7672770670505997e-05
3.0661542609777825e-05
3.2960243856905436e-05
3.433918965356497e-05
3.530587383693273e-05
3.608430262147522e-05
3.529632613208378e-05
3.9676819653777784e-05
4.533421804353566e-05
4.798662263283404e-05
5.059059043333036e-05
4.67362064568988e-05
4.079765864162255e-05
3.3059408281133074e-05
2.424777073883888e-05
1.8526328233292588e-05
8.269894863133231e-06
1.0916372730207513e-06
-3.3011305617947073e-06
-9.205703520365205e-06
-1.0998330708389403e-05
-1.3980844812522264e-05
-1.5699845221206488e-05
-1.7830687170317105e-05
-2.1269968215165136e-05
-1.9860630857237993e-05
-2.2628289968906756e-05
-2.4575722306963144e-05
-2.3624171490155277e-05
-2.3536741821317264e-05
-2.0217131009303557e-05
-1.9293306650070008e-05
-1.5821289650830295e-05
-1.1656809192572837e-05
-1.0041246071068599e-05
-6.0090165447945765e-06
-7.003331973010063e-06
-7.151055854137667e-06
-6.367288790443126e-06
-5.9278094681758375e-06
-3.2293950198436505e-06
-4.399175281832868e-06
-4.837394101286918e-06
-5.149602486653748e-06
-7.836618124201777e-06
-7.504844745653827e-06
-8.08001954055726e-06
-7.398969103178388e-06
-5.699063478914468e-06
-4.545767410490953e-06
-1.1768697731895372e-06
-1.9982011281172163e-06
-2.78572434808666e-06
-3.8986406707408605e-06
-5.456072301512904e-06
-4.4985076215198205e-06
-6.192038483732176e-06
-4.455759381016833e-06
-1.4071910072743776e-06
-1.7946367734111845e-06
1.0487057693353563e-06
-1.2763447330144118e-06
-2.3727140501250688e-06
-1.302916359691153e-06
-9.516135719422891e-07
2.8799161100323545e-06
3.143799631288857e-06
2.886164509163791e-06
3.59554269380169e-06
3.1644950126974436e-06
6.368655363075959e-06
6.62857559063923e-06
7.748427378828637e-06
9.189816921661986e-06
7.928205548068945e-06
1.033336349109959e-05
9.024141149893694e-06
7.882861780217354e-06
7.41036370754955e-06
7.395045429348102e-06
8.319881374063698e-06
4.443199486559024e-06
2.7411243195274437e-06
-2.5935696612577885e-07
-7.395822876787861e-06
-1.0528128825626482e-05
-1.5678011038744444e-05
-1.8274819581165502e-05
-1.838683726873569e-05
-2.0130134998908034e-05
-2.018080164134517e-05
-2.2714374551924266e-05
-2.322038812963001e-05
-2.2906096376118512e-05
-2.6952412611080945e-05
-2.8505748446150392e-05
-3.283780051788199e-05
-3.648672156941757e-05
-3.907314123807737e-05
-4.342797745948701e-05
-4.8586949560558423e-05
-5.9392459661467e-05
-6.87905629774832e-05
-7.415530183152441e-05
-7.012425822949808e-05
-4.931033714683508e-05
-1.4203664193246368e-05
4.05466061010884e-05
0.00011088678019177678
0.00018461282206772012
0.00024801207513291956
0.0002703595142747872
0.0002419242844098335
0.0001668884196988074
6.63416852262344e-05
-2.1814772367179103e-05
-7.992020169922398e-05
-0.00010110812792163415
-9.42828333450052e-05
-7.718014461488565e-05
-5.763681883763638e-05
-4.264821876631686e-05
-3.1430816875399614e-05
-2.616072549699311e-05
-2.4183612254091713e-05
-2.124364084465924e-05
-2.460144787619356e-05
-2.6906481878086197e-05
-2.484480160092062e-05
-2.29459266165577e-05
-1.9419431453115976e-05
-1.7183618297167413e-05
-1.5408067099542677e-05
-1.4665147546111257e-05
-1.603213252110436e-05
-1.4574530155186949e-05
-1.5074707903295348e-05
-1.4043379906070186e-05
-1.2087802190308139e-05
-1.1348086161433457e-05
-9.763689092778804e-06
-1.2342003287812986e-05
-1.2740641636810324e-05
-1.1678309192575398e-05
-1.2235583767505886e-05
-9.513913596492785e-06
-7.722052430381154e-06
-5.148727723280899e-06
-5.133539161761291e-06
-6.761071006167185e-06
-2.7605004788711085e-06
-1.9416145278228214e-06
9.192625043397129e-07
8.484363434035913e-06
1.5224571598082548e-05
2.208997904062926e-05
2.59743509332111e-05
3.0150118902838585e-05
3.261380379626644e-05
3.228791189258118e-05
3.77558690161095e-05
3.845889028752936e-05
3.845770851285124e-05
3.959655248308991e-05
3.8454324226222525e-05
4.073680452165718e-05
4.052825613598543e-05
3.9808627775528294e-05
3.7016687087998434e-05
3.057032296283069e-05
2.6180284635302087e-05
1.9928373887978523e-05
1.6065948500454397e-05
1.4828160090019082e-05
1.2376687834603217e-05
1.2206195492581173e-05
6.500621850591415e-06
-1.298227743973257e-06
-7.318318012039526e-06
-1.1999172670584812e-05
-1.389281140973253e-05
-1.71909720165786e-05
-1.9311383198328258e-05
-2.1999940258865536e-05
-2.583432564051691e-05
-2.3045091211315594e-05
-2.0900860306483082e-05
-1.6776748168467748e-05
-1.2893871314645367e-05
-1.3486257330441731e-05
-1.3456221552132774e-05
-1.5469891820885096e-05
-1.4437276206535898e-05
-1.1845261951748398e-05
-1.2808903250061121e-05
-1.0533415490954212e-05
-1.05334859767936e-05
-9.210145606175502e-06
-5.263925913823186e-06
-3.531427125835762e-06
1.6779322891125048e-06
2.1317649725460797e-06
6.991772352193948e-07
-5.065759296485339e-07
-1.7271769365834189e-06
-3.1061050549396896e-06
-6.8084819417890685e-06
-7.2544834210930276e-06
-6.4337303342654195e-06
-7.312850470952981e-06
-5.162944262337987e-06
-4.624780615358759e-06
-4.30539682838571e-06
-3.263558028265834e-06
-2.223550211510883e-06
9.951806987373857e-07
-1.2618996834135032e-06
-2.6283989882358583e-06
-1.585874088050332e-06
-3.6124412758908875e-06
-1.1756516187233501e-06
1.7578956885699881e-06
3.3984943001996726e-06
3.0941995987632254e-06
1.1050522061850643e-06
1.2315015851527278e-06
-1.165019455129368e-06
1.0579086051620834e-06
6.993276315370167e-06
9.627617259866383e-06
1.2256088893991546e-05
1.0756902270259161e-05
8.846529567563266e-06
9.19029724855136e-06
7.681893350763858e-06
8.480338237859542e-06
6.800250389460416e-06
4.467987423595332e-06
3.136041755169572e-06
-8.707010579200869e-07
-4.704697573743033e-06
-9.894453910419543e-06
-1.2562963604523247e-05
-1.2188397192858247e-05
-1.4174128807553643e-05
-1.680313312135695e-05
-2.1466255475388607e-05
-2.367873480579874e-05
-2.354076184474252e-05
-2.1248658867989434e-05
-1.5772720530549122e-05
-1.704672632740767e-05
-2.1292773737968673e-05
-2.572296870084756e-05
-3.113114900088476e-05
-3.3850446982341964e-05
-3.839735728661253e-05
-4.4279944461322884e-05
-5.309806368813952e-05
-6.606687287558088e-05
-7.442243474997667e-05
-7.531940792659952e-05
-5.988483326291316e-05
-2.534294833367312e-05
2.6933486424240982e-05
9.595310916665767e-05
0.00016781598696979927
0.0002325660412907382
0.0002651089067171597
0.00024415400480393146
0.00018032861709116332
8.325093170924447e-05
-9.960213731119438e-06
-7.216209053240163e-05
-0.00010107957530181011
-9.61769011951219e-05
-8.009490727545199e-05
-6.163002319681254e-05
-4.4042716240255686e-05
-3.309456070610395e-05
-2.717781961791843e-05
-2.6754654413707613e-05
-2.5646398000844783e-05
-2.5274979577716294e-05
-2.6136310509627947e-05
-2.1358561639317486e-05
-2.1821379675657226e-05
-2.0751203066993185e-05
-1.5777784199144662e-05
-1.3426866075860744e-05
-9.60206710942657e-06
-1.047955021249436e-05
-1.3976305126561783e-05
-1.64897351169202e-05
-1.8694462653456867e-05
-1.51153632259593e-05
-1.2383122168557748e-05
-1.097319375276129e-05
-1.0089688828429644e-05
-1.1014199799319613e-05
-7.47175670312572e-06
-7.276402129718917e-06
-7.2015645855572075e-06
-4.933749607971549e-06
-2.777602105652477e-06
6.490035389106197e-07
1.3021252129874483e-06
1.8773635588331672e-06
2.686960158371221e-06
2.54019766998681e-06
9.497284224835312e-06
1.4204448746113485e-05
1.7962562651518965e-05
2.2191506388935522e-05
2.154059234271699e-05
2.2575542914182734e-05
2.503450923541095e-05
3.020888357241347e-05
3.686711755790384e-05
4.021862241643248e-05
4.397498952357637e-05
4.44777324446477e-05
4.471793488391995e-05
4.4103107882165205e-05
4.152252142830548e-05
4.16397088542908e-05
3.6205435606007086e-05
3.1821393577047274e-05
2.9277576118147408e-05
2.367324907481816e-05
1.9637495825008955e-05
1.304182575267987e-05
6.0146101077407366e-06
2.1425898921734188e-07
-7.066082957862818e-06
-1.1547689950930362e-05
-1.8274592321176897e-05
-2.3139856409670756e-05
-2.4971540653950797e-05
-2.7168715064362914e-05
-2.6248799258610234e-05
-2.6557937985671742e-05
-2.407189481345995e-05
-1.9478929743854678e-05
-2.0834912049849663e-05
-1.965211026799807e-05
-2.080867534459685e-05
-2.183466438054893e-05
-1.8110020846506814e-05
-1.5017747898582456e-05
-8.991905531274824e-06
-7.169055606937036e-06
-6.696201637623744e-06
-5.6339578122788225e-06
-7.763483722555975e-06
-6.251846798477345e-06
-5.882111338451068e-06
-4.268434679488564e-06
-6.528369453917549e-07
-1.9553548895601125e-06
-1.712347739157849e-07
-1.75751637243593e-06
-5.56947873064928e-06
-7.510149487188755e-06
-8.373832542929449e-06
-6.3928974896043655e-06
-4.252327926224098e-06
-6.029378596394963e-07
9.78942466645094e-07
-1.2796722899111046e-06
-2.323506521406671e-06
-5.647897808103153e-06
-7.856693400754011e-06
-8.772021715230949e-06
-8.815236753889621e-06
-3.3526468996569747e-06
-1.4166990922603873e-06
5.269311031952384e-08
3.681440034597472e-06
4.0701837065171276e-06
4.886463159436971e-06
3.0243086825976206e-06
1.1163965041305346e-06
2.372027495312068e-06
2.8537828598018677e-06
8.565212453959248e-06
1.162476252147826e-05
1.1561156782136095e-05
1.1739764545382059e-05
9.21652963370434e-06
7.638161207523808e-06
7.778344865982945e-06
9.724170695335488e-06
1.0880294894377585e-05
8.265359042525233e-06
3.4956135550601175e-06
-5.259570230009558e-06
-1.2110825196032238e-05
-1.7156923320271744e-05
-2.1129093056515558e-05
-1.853320810596415e-05
-1.8490670754545135e-05
-1.833205368484414e-05
-1.6130120911839185e-05
-1.5838542765322927e-05
-1.7571239879998757e-05
-2.2827135467196058e-05
-2.7018600917472213e-05
-3.142695862834444e-05
-3.719484527664463e-05
-3.6742655709076644e-05
-3.725647161445522e-05
-4.004576737770549e-05
-4.6323984122409456e-05
-5.6344548909237346e-05
-6.579020225672139e-05
-7.488469140071174e-05
-7.000267470402832e-05
-4.786020258507051e-05
-1.0291250134741858e-05
4.825788317930346e-05
0.00012023168523001004
0.00019437589128301624
0.00025129620098596206
0.00026696733550579665
0.00023372805617327685
0.000151090809993093
4.589859673842511e-05
-4.262654164222113e-05
-9.643378069768005e-05
-0.00011294321581090117
-0.00010409952494683239
-8.352711552106484e-05
-6.292335973512309e-05
-4.598104032993433e-05
-3.0139339457946335e-05
-2.2294027303360053e-05
-1.804090629775601e-05
-1.769058582112848e-05
-1.9766358377637516e-05
-1.9640150867417105e-05
-2.081159482258954e-05
-1.9590141960179608e-05
-1.8189439572324773e-05
-1.9130045131987572e-05
-1.8705620391301636e-05
-1.8960886677632516e-05
-1.7148898791674583e-05
-1.369187765476454e-05
-1.120989600167377e-05
-5.363297987059923e-06
-5.4989159252727404e-06
-7.148150416469434e-06
-8.071467334502813e-06
-1.0862323222227133e-05
-1.3042169598520559e-05
-1.65226230137705e-05
-1.746680015912716e-05
-1.5427369248754985e-05
-1.4084411532166996e-05
-9.885492943340068e-06
-8.070153910466615e-06
-4.754110364046937e-06
-9.140343308899901e-07
2.6689756964515254e-06
9.484242013968469e-06
1.1258126164648274e-05
1.4750233333415963e-05
2.1163260328194156e-05
2.2923672190700017e-05
2.809352105259677e-05
3.2240079747225536e-05
3.365624053230931e-05
3.491545595579737e-05
3.733233080538412e-05
4.461854302917345e-05
4.697786312135577e-05
4.856526339835909e-05
5.169410354710635e-05
4.9911070618691156e-05
4.69265574452038e-05
4.1827353413737e-05
3.5638169038065826e-05
2.9717739721490943e-05
2.320424562185508e-05
1.9031999727303628e-05
1.0328250255042803e-05
-7.941634976305068e-07
-9.166415736672207e-06
-1.6600792037024803e-05
-1.834562652902605e-05
-1.9640739537862828e-05
-1.7608987718631397e-05
-1.3684415080206236e-05
-1.4952693618397461e-05
-1.4910400295775617e-05
-1.640795625235114e-05
-1.892983692641792e-05
-2.0131069504714105e-05
-2.2088618436555407e-05
-2.0230439531587763e-05
-2.111977596541692e-05
-2.004339802397226e-05
-1.697847778814321e-05
-1.6503168410508806e-05
-1.268294079181942e-05
-1.2306175619869464e-05
-1.1097412539129436e-05
-7.281459033947613e-06
-7.891053826369898e-06
-6.667763727818965e-06
-6.658080678789702e-06
-5.463703018904198e-06
-3.4742365073725523e-06
-3.200023172666988e-06
-7.773124934828957e-07
-3.3753453294593783e-06
-3.858118702737556e-06
-3.2606512263555487e-06
-7.3044203077188286e-06
-9.090283811019617e-06
-1.0492721173704922e-05
-1.0445188877383771e-05
-8.76009102057651e-06
-6.467529033216124e-06
-1.8108460153598571e-06
-3.3062548254747526e-07
2.128796722900006e-06
3.5389425079301873e-06
8.517054652656952e-07
-1.4147099136607721e-07
-2.693089641070401e-06
-1.4421561331801058e-06
1.506408750628907e-06
6.751125170012529e-07
5.398812277235265e-06
7.537044666605652e-06
1.0024455775692331e-05
1.4948126249691995e-05
1.5196739525435987e-05
1.6177282589069364e-05
1.5170183417012595e-05
1.525819527614658e-05
1.4853264246994513e-05
9.875611851839494e-06
7.683789249313122e-06
3.234445273392339e-06
-4.238927999722364e-07
-3.0431976369982294e-06
-7.461514485385123e-06
-7.871283969507203e-06
-1.3729028921716235e-05
-1.8129347381545813e-05
-1.951020374235668e-05
-2.1325449722553458e-05
-1.9905674548681418e-05
-2.1716859464504523e-05
-2.386465973813756e-05
-2.5952928012884513e-05
-3.061812327587177e-05
-3.047083868068512e-05
-3.2731058809076785e-05
-3.621942943254908e-05
-3.6241666634850844e-05
-3.8587983510751656e-05
-4.1749915396849246e-05
-5.109073765652283e-05
-6.217347845449694e-05
-7.078698234863623e-05
-7.333792325425748e-05
-5.521664951402272e-05
-1.6850333963702724e-05
3.8773042831508064e-05
0.00010816212238751177
0.00018284409981106364
0.0002468885155622047
0.000267958479923891
0.0002384253309628548
0.00016438833870324743
5.901117094708752e-05
-3.465950891268221e-05
-9.329672860758365e-05
-0.00011711784839008033
-0.00011135029848219347
-9.052617127736085e-05
-6.375029130367693e-05
-4.4643980459113664e-05
-3.1190359777610865e-05
-2.3790207706042565e-05
-2.4863705789357482e-05
-2.383830269536702e-05
-2.2468009547083057e-05
-1.8726916039213393e-05
-1.269110805424134e-05
-1.1415100914291543e-05
-1.0523061803269229e-05
-1.0942410710867989e-05
-1.3294688301357382e-05
-1.533638345563304e-05
-1.6949111909525527e-05
-1.4565685432899045e-05
-1.562973085356134e-05
-1.582483218953712e-05
-1.4775618240037147e-05
-1.5696325476710626e-05
-1.2815148807021615e-05
-1.0523060495870595e-05
-8.879107042503165e-06
-4.979008906502713e-06
-4.52983363175008e-06
-8.913108331398689e-07
-9.695449421087687e-07
-2.4440562356176088e-06
-1.8679302229429595e-06
-3.0168606031111267e-06
5.869357551091525e-07
5.06876762074171e-06
1.0972444215440191e-05
1.5603931331042986e-05
1.5131098393794673e-05
1.6731259904645412e-05
1.829986058510258e-05
2.1158979507163167e-05
2.6008431404989096e-05
3.1012064255264704e-05
3.724602004240296e-05
3.8710962201093935e-05
4.1232819853576075e-05
4.359337481218972e-05
4.177483231160295e-05
4.2713851826192695e-05
4.259967147390853e-05
4.068602356710471e-05
4.0447251421937835e-05
3.7485111192836484e-05
3.480351210782828e-05
2.9188569726557034e-05
2.0687562653165514e-05
1.1491513703276723e-05
6.114671577961417e-07
-7.656981210857339e-06
-1.4308190657175146e-05
-1.6356501078007568e-05
-1.690178993385416e-05
-2.0576937799887673e-05
-1.9369387928236392e-05
-1.7791097263852862e-05
-1.690014141786378e-05
-1.4681419486350933e-05
-1.544393956010026e-05
-1.511079551619332e-05
-1.7766559324172704e-05
-1.8642903114596265e-05
-1.7054766544788436e-05
-1.5408872911848448e-05
-1.0664928424830578e-05
-9.984328755763272e-06
-9.962433864529885e-06
-1.07596606540028e-05
-1.5265797628671862e-05
-1.2630482672193466e-05
-1.1113028335785202e-05
-1.0493194906757708e-05
-1.0224903746802738e-05
-1.2441695218967652e-05
-1.1692153350395529e-05
-1.0454311222929391e-05
-4.4237105498723395e-06
1.3764096706836426e-06
-7.760632456665917e-07
-7.098980745467998e-07
-1.9638268327071273e-06
-3.770380999412737e-06
-2.151610487999278e-06
-3.2069661983769038e-06
-2.869284969619912e-06
-5.0025874998027575e-06
-7.695134854657226e-06
-6.7235226879347465e-06
-8.112599289233913e-06
-7.182682907114213e-06
-3.1511545444118383e-06
1.7891445622808533e-06
7.290050803021586e-06
8.95330066441602e-06
1.0823383547631238e-05
9.676732190655457e-06
1.0502933832867711e-05
1.4125971517842117e-05
1.4263831019434292e-05
1.3993642710374843e-05
9.815056728257332e-06
8.540793430711346e-06
1.0844553742117569e-05
1.0445973202877212e-05
1.191019964608131e-05
9.909889229220425e-06
4.216719503347122e-06
-5.560800673265476e-07
-5.040433620706608e-06
-7.062296958793013e-06
-1.3348709160254657e-05
-2.02221606286912e-05
-2.485704692389845e-05
-2.9477538532773906e-05
-2.8092743264096498e-05
-2.5334423071399215e-05
-2.3153000540787616e-05
-2.1459049435179622e-05
-2.2684174894038733e-05
-2.1617321465328132e-05
-2.2091921721312247e-05
-2.1535936241434683e-05
-1.9518978945143317e-05
-2.1582164151823235e-05
-2.568607715147664e-05
-3.729339175606583e-05
-5.141408041708928e-05
-6.571037403091395e-05
-7.826134941524288e-05
-7.625065597949288e-05
-5.98324685370244e-05
-2.6837356244868715e-05
2.3489577188229305e-05
8.779816090509485e-05
0.00016472120387334144
0.000229504323101537
0.00026223375698464224
0.00024616171668867537
0.00017612200605299222
7.734671856951536e-05
-1.651319479378799e-05
-8.029383172925009e-05
-0.00010549231689083172
-0.00010221333519666587
-8.252807401731843e-05
-6.309504072987693e-05
-4.5974558929628984e-05
-3.1709667439372424e-05
-2.6572288390980248e-05
-2.190813569313832e-05
-2.0717830807370774e-05
-1.9397836638290755e-05
-1.542932000120345e-05
-1.7119525693942705e-05
-1.4942943948881293e-05
-1.5248876479745377e-05
-1.8428904638767563e-05
-1.8009078189606953e-05
-1.9262429759692168e-05
-1.600515815880499e-05
-1.3701157513423823e-05
-1.1351014393312653e-05
-9.116463388636475e-06
-9.656388670009619e-06
-8.652370866002457e-06
-1.0072428040075465e-05
-9.035770176524238e-06
-8.384448676679312e-06
-1.0889469592711976e-05
-7.627890738604037e-06
-8.545603577658767e-06
-9.696823212834715e-06
-7.2100103238881275e-06
-6.938429805813939e-06
-3.967422173900559e-06
-2.4486556071678933e-06
-2.880738065869082e-07
3.9750423184159445e-06
5.145650675331126e-06
1.1853085197799373e-05
1.930655292881056e-05
2.3557461020118353e-05
2.7335335119005322e-05
2.7900872623831674e-05
3.246842084081436e-05
3.522783532616813e-05
3.9253997783816885e-05
4.559193729392064e-05
4.579584492603317e-05
4.6425820983131416e-05
4.6140325537180615e-05
4.3695132717402885e-05
4.336832830631465e-05
4.152710420157746e-05
3.973180753291672e-05
3.418933243892752e-05
2.743687019801655e-05
2.0685832680555905e-05
9.981207995224395e-06
2.1724582097704115e-06
-6.349997136112506e-06
-1.2034933320137498e-05
-1.2652568898374739e-05
-1.6190887322409253e-05
-1.7108284055211698e-05
-1.8039751012111083e-05
-2.2290102378974552e-05
-2.3748867306494503e-05
-2.4185083759675763e-05
-2.1012961212818482e-05
-1.9461026965927886e-05
-1.7752361202383327e-05
-1.5626565527782077e-05
-1.8085626663832954e-05
-1.892401240866093e-05
-1.9370995630652033e-05
-1.8512798646952433e-05
-1.4012287465448026e-05
-1.018173537659095e-05
-6.466679110417317e-06
-5.932844487688271e-06
-6.5021881141547055e-06
-5.8263908044864365e-06
-6.560725012150215e-06
-4.317407160669973e-06
-4.462592812615185e-06
-4.258018066138902e-06
-3.5437878977973014e-06
-6.7567632981990755e-06
-6.457781694280129e-06
-5.247254989626526e-06
-4.77593061987136e-06
-2.3826949018257437e-06
-3.0164796385179216e-06
-2.3804207671673794e-06
-4.4286523461778415e-06
-5.766110916738398e-06
-5.027826489367726e-06
-5.873891211649607e-06
-2.9560351322288625e-06
-1.518698127256357e-07
2.5896640636347e-06
5.966922515199258e-06
6.3569889334758045e-06
7.588321693674516e-06
5.487090277256357e-06
3.974667663442233e-06
6.351468584853137e-06
6.052035757875274e-06
7.140903846902802e-06
6.0764374438804225e-06
4.680479833041318e-06
2.763671375305421e-06
-1.1247045677009737e-06
1.4778945001125976e-06
3.0640239288004523e-06
4.291275388368376e-06
7.817114465069608e-06
5.007188690342446e-06
3.0052378292566573e-06
-2.5973399715439882e-06
-8.238065902332892e-06
-9.47905010661998e-06
-1.2397866328228702e-05
-1.2344923845830635e-05
-1.3430369051548041e-05
-1.6491977476107422e-05
-1.8608736354508437e-05
-2.031586001294272e-05
-1.8690690524181264e-05
-2.1130430923221866e-05
-2.38216436514449e-05
-2.5284626303800906e-05
-3.0793101757353725e-05
-3.2614537417430256e-05
-3.5779286577053426e-05
-4.0003540789257386e-05
-4.681197907530077e-05
-6.144095226545687e-05
-7.234394001898181e-05
-7.886580777949348e-05
-7.502772695033855e-05
-5.288878077180925e-05
-1.547168346860417e-05
4.099289395753658e-05
0.00010770044673336088
0.00018050780579415004
0.00024273402328844895
0.0002626094230890885
0.00023484060398004658
0.00016148747425859256
6.433788968251974e-05
-1.8510265704207995e-05
-7.103213829395827e-05
-8.787655031028407e-05
-8.553098706443052e-05
-7.356634216648672e-05
-5.691009579322781e-05
-4.5166709469413036e-05
-3.446218096314624e-05
-2.776781076363477e-05
-2.2199307977643912e-05
-1.9465026696252608e-05
-2.219638497535925e-05
-2.161051054372365e-05
-2.3278228582057636e-05
-2.4900576647723938e-05
-2.0711372599180322e-05
-1.8238429390748934e-05
-1.3722143819450139e-05
-1.3107176300763967e-05
-1.4166694256800838e-05
-1.378859548140099e-05
-1.505334199691788e-05
-1.2244784841186629e-05
-1.1488813186133484e-05
-1.196290395455435e-05
-1.1552323314845125e-05
-1.323782066720014e-05
-1.08740638324889e-05
-9.577123194048909e-06
-9.307528102908691e-06
-7.010758849901322e-06
-6.522815169773821e-06
-4.334289542384795e-06
-3.6282448832025693e-06
-5.485165956997662e-07
3.4801840342879586e-06
2.4425078777312592e-06
6.632302358866582e-06
1.1827689831989119e-05
1.4250190645270777e-05
2.0777687950612744e-05
2.496765694104397e-05
2.8870311552964267e-05
2.8844995540566742e-05
2.8358750341794803e-05
3.1393676692914596e-05
3.393608767510159e-05
3.933973681569114e-05
4.337251471042691e-05
4.578345021855057e-05
4.7225097375758196e-05
4.557140817951222e-05
4.451072686606494e-05
3.905849666807626e-05
3.155483096861644e-05
2.5872324215470144e-05
1.757098226562448e-05
1.0249625916003424e-05
2.065457238131785e-06
-4.118830190691369e-06
-7.741014542261837e-06
-1.2077110341124353e-05
-1.1253877971739712e-05
-1.0175582133342687e-05
-1.130068289967312e-05
-1.0848665226603771e-05
-1.4926135861514922e-05
-1.7754094812971744e-05
-2.153490999035057e-05
-2.3241997268996784e-05
-2.0136491968969494e-05
-1.880291927136568e-05
-1.4414013548957882e-05
-1.3211314524141926e-05
-1.3491432525825076e-05
-1.2286828962260188e-05
-1.3834361539011297e-05
-1.0371309656420635e-05
-1.0019470835231914e-05
-1.122094289485176e-05
-8.257637034603249e-06
-9.553056486311107e-06
-1.0448490627368301e-05
-1.0048141064089577e-05
-9.241135501270037e-06
-7.279257033587783e-06
-7.169208970481122e-06
-3.298251158412313e-06
-1.679810736732179e-06
-2.612060598039534e-06
-6.868277182547899e-07
-4.5388765101961326e-07
1.9551952732399513e-06
8.601236913818866e-07
4.274130560588674e-08
-1.1881021464432706e-06
-6.483767151621578e-06
-6.0969344986006035e-06
-5.030440831887972e-06
-4.943784801980655e-06
-1.6608607324997138e-06
-1.6502463040524162e-06
-1.2328281400186825e-06
-2.3948018679220695e-06
-2.633134613461152e-06
8.261213793048228e-07
1.3823538438373362e-06
3.6772036651200324e-06
6.030688041391841e-06
8.377748201837676e-06
8.668342616147129e-06
5.342358349480492e-06
5.447740250019706e-06
4.815814463654533e-06
6.41488833252879e-06
1.1803920699549053e-05
1.2685646538557194e-05
1.3631304796035693e-05
1.1572834353046346e-05
8.07790036105871e-06
4.036615962377255e-06
-3.955101078645384e-06
-9.587635474872513e-06
-1.6288234860439843e-05
-2.116375264904491e-05
-2.2280234418303735e-05
-2.3512062284680724e-05
-2.226231271151846e-05
-2.354441676288843e-05
-2.170293856806893e-05
-1.7504839320281462e-05
-1.987555009463904e-05
-2.181795207434334e-05
-2.641409565740105e-05
-3.1637507845516666e-05
-3.2958674637484364e-05
-3.6256901410069986e-05
-4.0032284005064867e-05
-4.927399157850232e-05
-6.112406617830857e-05
-6.977778508598931e-05
-7.58753759555475e-05
-6.719174496083724e-05
-4.2002794600648485e-05
2.134136252607277e-06
6.368078828700163e-05
0.00013363288746859325
0.00020607851877230132
0.0002529809166276209
0.0002546454149978672
0.00020989102500834633
0.0001229016052661791
2.7119498099636985e-05
-4.877571757333499e-05
-8.929304937055349e-05
-9.433475349851506e-05
-8.400511660511256e-05
-6.553745953397083e-05
-4.958133024501876e-05
-3.907613415776723e-05
-3.2358029216084105e-05
-3.11420935759088e-05
-2.913454636654933e-05
-2.925287299149204e-05
-2.9327471395390603e-05
-2.5276686642428103e-05
-2.2531780132339918e-05
-1.7001896139845485e-05
-1.3909421625157847e-05
-1.1159737766774924e-05
-8.051296958910825e-06
-1.0302247460458602e-05
-1.043075587858766e-05
-1.1901328036856285e-05
-1.4079923914778192e-05
-1.1692715247590968e-05
-9.879490221464948e-06
-8.13598910553992e-06
-7.713099819284253e-06
-9.052749760485312e-06
-8.611369935351831e-06
-1.1200077722151036e-05
-1.3455183250243863e-05
-1.4654337576303078e-05
-1.2427649437540822e-05
-9.237117694738117e-06
-8.484597685765038e-06
-4.676362948430324e-06
-2.0819875317101832e-06
8.393288908337126e-08
7.717158780451427e-06
1.1238039576255687e-05
1.5529062352470646e-05
1.9960479789915553e-05
2.236310785974638e-05
2.6841135479571676e-05
3.0223416615626775e-05
3.574101361891735e-05
4.156065364213646e-05
4.578053375325908e-05
4.809381374570876e-05
4.509682412390248e-05
4.317244537332954e-05
3.9424501835583214e-05
3.729377453964844e-05
4.04586939453111e-05
3.773586297484144e-05
3.2984903555188794e-05
2.665854242422938e-05
1.9349187539319246e-05
1.2669833836298494e-05
