2.3080555308752082e-05
1.4630385805958213e-05
7.437080341787805e-06
1.4671815620204143e-06
-4.8582826934762124e-06
-8.380473161651025e-06
-1.3209255257606856e-05
-1.4707954051118577e-05
-1.6488202390974038e-05
-1.905713025962541e-05
-1.6777038808868383e-05
-1.744748266219176e-05
-1.753753861066798e-05
-1.7163882603199454e-05
-1.7438575525829947e-05
-1.5564658667699405e-05
-1.7791827076507616e-05
-1.6159685003458435e-05
-1.4414105862670112e-05
-1.623028691710715e-05
-1.2782796716237499e-05
-1.2293115617012518e-05
-1.3251424945792678e-05
-1.2363021312467026e-05
-1.271072244435345e-05
-9.272813656480139e-06
-8.505193079599849e-06
-6.5704392682164325e-06
-3.3607296359150496e-06
-4.224240967687365e-06
-3.6996424910284986e-06
-5.172490659788309e-06
-5.941930794506334e-06
-6.345488827719237e-06
-7.033856149973872e-06
-4.859795922129706e-06
-3.6071066915610572e-06
-3.2677033345862583e-06
-4.290691038022487e-06
-6.330577946300764e-06
-4.529290833943378e-06
-4.208873519928602e-06
-1.3925460962127545e-06
1.4917451949258975e-06
8.945478384703165e-07
2.134628005023842e-06
-4.059495495312149e-08
-6.008002628732356e-07
3.7385154882940697e-07
1.1888197377629695e-06
5.483556606122875e-06
6.741760103068373e-06
8.434508117716177e-06
1.1469904791283625e-05
1.1283627657121542e-05
1.1230013001295447e-05
9.49388726212419e-06
9.019640231144876e-06
6.972191727072641e-06
3.616018034335866e-06
5.080080143216037e-06
3.636716144228558e-06
2.8259872806302155e-06
1.8621106505634089e-06
-3.5812000760415685e-06
-6.378552143360139e-06
-1.2158215497493075e-05
-1.4867777963445405e-05
-1.5734816997792223e-05
-1.941790793580367e-05
-1.9565733850868128e-05
-2.1241226136226032e-05
-2.2006596111623367e-05
-2.202988736144107e-05
-2.2984086228916567e-05
-2.1747254834281193e-05
-2.5343570371205715e-05
-2.7889616717402532e-05
-2.7711554480447376e-05
-3.3926209027868026e-05
-3.912567149200186e-05
-4.585590306760423e-05
-5.708228690082251e-05
-6.969284203250936e-05
-7.943205770288841e-05
-7.788894976101801e-05
-6.3435930144351e-05
-2.680360444173857e-05
2.87272303012287e-05
9.466890776366199e-05
0.00017154211690240118
0.00023764555794514308
0.00027107372318369016
0.0002559270746473885
0.00018882179455204096
9.070331304883439e-05
-6.004411318372149e-06
-7.047051121844561e-05
-9.749220822641291e-05
-9.566267601712752e-05
-7.688371329095389e-05
-6.227267954272975e-05
-4.948002685978281e-05
-3.807760879226407e-05
-3.2511068980056734e-05
-2.605830678703569e-05
-2.449896840062138e-05
-2.2385708348338085e-05
-1.8612884332469548e-05
-1.7646158767092857e-05
-1.409421383868903e-05
-1.3092771780520707e-05
-1.6226972832100728e-05
-1.769642636872959e-05
-1.769631353454315e-05
-1.698159792340448e-05
-1.8183124950610363e-05
-1.4812264907959616e-05
-1.3382052088672935e-05
-1.4712829511154268e-05
-1.1125974879178102e-05
-1.1691734982832713e-05
-1.212099533631772e-05
-1.1043621441331197e-05
-1.0391205421456107e-05
-8.714064904324914e-06
-1.0551690991178475e-05
-1.0332293584269792e-05
-6.899594325204816e-06
-5.603117017471959e-06
-3.015023594343802e-06
1.3552363498092745e-07
4.9499144552100915e-06
7.897558816694072e-06
1.1480332148039452e-05
1.7728549494222534e-05
1.8990101125382353e-05
2.1377315874815395e-05
2.6791447112373135e-05
2.768401202501991e-05
3.170683459075008e-05
3.32160965967887e-05
3.543219531820796e-05
3.7879820922626095e-05
3.86388463766707e-05
4.34113539995451e-05
4.337355676398147e-05
4.3947014432887954e-05
4.434995014435117e-05
4.0770310704374424e-05
3.9363360770039435e-05
3.1896563484679064e-05
2.48792840693568e-05
2.1016422920183686e-05
1.2469100056478055e-05
6.609763886444853e-06
9.401998113389709e-08
-5.41602435077948e-06
-1.1479830106964073e-05
-1.791005621498698e-05
-1.9147460761814727e-05
-2.066661772914813e-05
-1.9325000096159783e-05
-1.6611367470886762e-05
-1.7550591564940987e-05
-1.5499439939503645e-05
-1.7153892088117573e-05
-1.7580376436399092e-05
-1.5677670830882562e-05
-1.6144105302373646e-05
-1.266676730438121e-05
-1.1324546051127982e-05
-1.0665996455827553e-05
-1.0316803468413127e-05
-1.1619770305060229e-05
-8.803471757801162e-06
-8.584848444570525e-06
-7.018427197635901e-06
-6.3186223542288644e-06
-1.0017333295309072e-05
-1.1740610887045477e-05
-1.3013060822686384e-05
-1.0583117784790375e-05
-6.420866952794313e-06
-5.04225579334161e-06
-1.7619111076783156e-06
-4.691426795488951e-06
-8.2955639300053e-06
-8.991502852495614e-06
-9.483935343723715e-06
-3.5205599147047906e-06
1.2302078857828747e-06
6.215817165866611e-06
6.296867809396645e-06
3.2464657806485775e-07
-8.47319540753233e-07
-3.5930888202528877e-06
-4.2633497514543706e-06
-2.7984513053525006e-06
-2.1302510617715598e-06
-5.96135180330748e-07
-3.2497887332283426e-06
-2.076988721455564e-06
1.641299206767144e-06
3.3225308584405866e-06
9.178300388157368e-06
1.0931959820936754e-05
1.401927846700346e-05
1.4472975067292282e-05
1.1919260032300372e-05
1.5497972356115497e-05
1.4131255738902837e-05
1.1751640272450459e-05
1.034151284784457e-05
6.160963096135674e-06
3.318705864785443e-06
-1.8047625189865357e-06
-5.612387781184225e-06
-9.480538267325755e-06
-1.5010143840754608e-05
-1.7777189043499675e-05
-2.1318315020835144e-05
-2.281541276261123e-05
-2.2488768820494442e-05
-2.0539010392894852e-05
-1.6946475568602182e-05
-1.665059033939542e-05
-1.5982437332695554e-05
-1.7127643104686285e-05
-2.1316254048997507e-05
-2.414363660818708e-05
-2.9782352441998228e-05
-3.355611391953062e-05
-3.93305676880118e-05
-5.173559236482106e-05
-6.197427171628078e-05
-7.136516973105245e-05
-7.483245764206004e-05
-6.30052348924437e-05
-3.6945242015917756e-05
6.153475283099397e-06
6.34811690360948e-05
0.00013419462817410022
0.0002041704521502652
0.00024811875437080744
0.00024870498896234494
0.00019673978505352352
0.00010501777194349415
7.250597889196797e-06
-6.458751482796288e-05
-9.869259781680739e-05
-0.00010390917771019303
-8.982751660369104e-05
-6.928490063273784e-05
-5.248733850748977e-05
-3.653328138852885e-05
-2.5560309381944535e-05
-1.8126827001196943e-05
-1.7244581727027253e-05
-2.157949535330772e-05
-2.1740031172612362e-05
-2.2858921738588833e-05
-1.9548579587080894e-05
-1.3292404162257299e-05
-1.2831692856707377e-05
-1.1572519156288763e-05
-1.4551126696460415e-05
-1.5490481700908276e-05
-1.430233595556274e-05
-1.5747729491977225e-05
-1.2846648019149143e-05
-1.415512184621548e-05
-1.4018257274983625e-05
-1.2305137715884484e-05
-1.320999456311256e-05
-9.68563182368598e-06
-1.1146292877128872e-05
-1.2157346361618693e-05
-8.961229013948468e-06
-1.0065975800443994e-05
-7.913126182756969e-06
-4.0165914469980635e-06
1.3182983593651443e-07
2.124704792549892e-06
2.0091890178264293e-06
5.073963336599263e-06
7.463070744506695e-06
1.0912484128766664e-05
1.699445704161917e-05
2.015156343304625e-05
2.3436868900716945e-05
2.430161379152196e-05
2.8217206988756516e-05
3.24473051023233e-05
3.3597309311517165e-05
3.8431072255207255e-05
3.911662724931375e-05
3.9864918619514356e-05
4.1355201688020315e-05
4.247173080784705e-05
4.5874884108343394e-05
4.353604208517936e-05
3.963120457228797e-05
3.569645974721425e-05
2.8908449621667387e-05
2.2787904299548245e-05
1.662981384242812e-05
1.28612074377088e-05
6.441509469823359e-06
-1.5086986309142958e-06
-6.623370950364915e-06
-1.3186916532959003e-05
-1.666229502461647e-05
-1.6233324913628167e-05
-1.6976258564227464e-05
-1.5165598085786769e-05
-1.7575515698808886e-05
-2.020351178089186e-05
-2.0932037386955926e-05
-2.386473170190584e-05
-2.1062904522750614e-05
-1.7877188213333284e-05
-1.5360616316684172e-05
-1.320762140721854e-05
-1.2858726904596551e-05
-1.1445093093698233e-05
-1.3461608602938213e-05
-1.5009506114438409e-05
-1.2637966051443073e-05
-1.4179895345023397e-05
-1.3834336016316229e-05
-1.0974469091706851e-05
-7.743194771592243e-06
-5.549390721171221e-06
-4.878358936366567e-06
-9.616965144232381e-07
-3.0748892072551826e-06
-5.189149135276239e-06
-4.751123981350247e-06
-9.261797004000982e-06
-8.22457406002286e-06
-7.666823364615993e-06
-6.498600839677238e-06
-5.2676229529424745e-06
-7.423665749684005e-06
-5.493057017247338e-06
-5.272007058465533e-06
-3.155574177071685e-06
2.436990769183467e-06
3.729164291144116e-06
5.719665352899028e-06
4.53043537618214e-06
2.15829322769423e-06
3.7904066516603052e-06
3.9922522887536616e-06
6.70687006731896e-06
8.599826458066673e-06
1.1229727533645928e-05
1.2135955273606669e-05
9.473680790961225e-06
9.387004013206024e-06
6.3555685869687295e-06
3.8090810221547144e-06
5.241119708898623e-06
5.105744833144854e-06
5.021460253828991e-06
-4.2564232671793434e-07
-6.395362845523778e-06
-1.2551262159377075e-05
-1.9132947556954605e-05
-1.613842971437407e-05
-1.4377278091615153e-05
-1.47652218629446e-05
-1.388588259487733e-05
-1.4686652662021515e-05
-1.2998324962154584e-05
-1.6141248806889053e-05
-1.874510644483962e-05
-2.1206948474628007e-05
-2.6767409110561857e-05
-2.722158922097151e-05
-2.972685518898288e-05
-3.269743433520489e-05
-3.853489567973156e-05
-5.0873331986167614e-05
-6.12707150935421e-05
-7.013430058577796e-05
-6.886446391263235e-05
-4.8899100931976136e-05
-1.2771299964242644e-05
4.12286102005055e-05
0.00010501885361691166
0.000175336975985374
0.00023209192079320928
0.00024741121251281584
0.00021661120382532317
0.00013690797203480543
3.479998946431806e-05
-4.783935378327442e-05
-9.82259942361452e-05
-0.00011123633191800764
-9.987137059397355e-05
-7.790864765411243e-05
-5.568929600485717e-05
-4.107763913907547e-05
-2.928052043671414e-05
-2.3551821868750267e-05
-1.9717716497780202e-05
-1.7460952449255274e-05
-2.0478607723362074e-05
-2.0996784485305398e-05
-2.1150433724415052e-05
-1.8541702615948452e-05
-1.2662990229728166e-05
-1.0966089462272066e-05
-8.469166743907408e-06
-1.1687007884120248e-05
-1.4529797169871017e-05
-1.5139263155106164e-05
-1.700875634469412e-05
-1.193748340710954e-05
-9.337676203813317e-06
-8.051667805375473e-06
-7.047258293368941e-06
-9.66473010066693e-06
-8.913730880522053e-06
-8.87947356886798e-06
-8.775264802807214e-06
-5.653809921568609e-06
-7.289456618764234e-06
-6.950007048089901e-06
-6.0631936094068806e-06
-3.0746931543035316e-06
4.956176553605474e-07
2.042789901679498e-06
7.2205061201202625e-06
1.043086615482025e-05
1.2476634140057286e-05
1.712901712380699e-05
1.9392820945540734e-05
2.4921723195348022e-05
2.968612500353629e-05
3.56094121229944e-05
4.1163469120419904e-05
4.201730661179681e-05
4.5553523875696555e-05
4.68340455768157e-05
4.588878158529042e-05
4.7168043067813414e-05
4.718181969565194e-05
4.504351107925686e-05
3.884055564640221e-05
3.3281537241691694e-05
2.920725927424428e-05
2.3429918712736253e-05
2.1746681454715144e-05
1.669414530169888e-05
9.361329773582838e-06
2.526295986626792e-06
-5.129758221755765e-06
-1.0107192451869196e-05
-1.4677167939680658e-05
-1.7983499787987967e-05
-1.9360452540695405e-05
-2.310622102186244e-05
-2.415916594600276e-05
-2.6037947066015477e-05
-2.5350089003950416e-05
-2.2337151108331454e-05
-2.19027288039797e-05
-1.8303035403732792e-05
-1.7054580041531153e-05
-1.8478688673440047e-05
-1.6236025487614825e-05
-1.6316234678015462e-05
-1.4150045387850696e-05
-1.3674175704636582e-05
-1.3801808336211252e-05
-1.0233804118797707e-05
-1.1370395839094272e-05
-1.0338785614294466e-05
-8.915457556213369e-06
-7.552598390248022e-06
-6.069018638754642e-06
-7.224639603009564e-06
-5.699730820651894e-06
-7.40282808919801e-06
-8.121388020754239e-06
-3.953243833620945e-06
-4.342087038367026e-06
-2.164782074487448e-06
-3.2239444180959254e-06
-4.714023020824243e-06
-2.4076863383015734e-06
-1.7670399756752886e-06
2.7071381509813364e-06
5.348829347440187e-06
3.6620117498387117e-06
2.6905901790996722e-06
2.113320363150706e-06
4.454100860584731e-06
5.464798789489578e-06
8.063252607826144e-06
1.2166859278295306e-05
8.082033275513822e-06
6.132595387953188e-06
5.958134750017052e-06
6.82469720914014e-06
8.84359036490423e-06
9.776341187262005e-06
1.0910115577189572e-05
6.86994923171369e-06
2.7127389330416918e-06
5.747344289375178e-07
-4.172259423285141e-06
-4.908642267764662e-06
-8.283654096885584e-06
-1.1533281337960943e-05
-1.3861767740763753e-05
-2.0171349774500413e-05
-2.168543977631998e-05
-2.33215777143414e-05
-2.6053369197143184e-05
-2.6599801287829905e-05
-2.7603831199485285e-05
-2.713980825319595e-05
-3.0179829195731145e-05
-3.0426583009557362e-05
-2.881286178535447e-05
-3.5161131563654635e-05
-4.3825597003888106e-05
-5.72132598222197e-05
-7.238566297473881e-05
-8.033430083287385e-05
-7.660549346155676e-05
-5.157805793487569e-05
-9.889924456274457e-06
4.806425999959174e-05
0.00012117840367409372
0.000191755258356352
0.00024153744908517183
0.0002456897555020987
0.00020037734128663942
0.00011482572233489918
1.5329740961078642e-05
-5.605916413742307e-05
-9.315104091456305e-05
-0.00010004671929664255
-8.396341530669815e-05
-6.333565681870823e-05
-4.486028194605751e-05
-3.417472532873944e-05
-2.5566482804606494e-05
-1.766507295997144e-05
-1.78844684910473e-05
-1.608802767805173e-05
-1.6282176488857658e-05
-1.782125769977938e-05
-1.6744537674640014e-05
-1.758612330604592e-05
-1.4985491873176215e-05
-1.4806568742642412e-05
-1.612789480986976e-05
-1.5040168193536374e-05
-1.661166004396364e-05
-1.450450872653164e-05
-1.3388390755153523e-05
-1.0725260324306873e-05
-7.34614945940848e-06
-1.0259423220304598e-05
-9.520312971744715e-06
-9.337793528629845e-06
-1.0771359143291193e-05
-9.46453178585216e-06
-9.096596841118298e-06
-6.392970533397602e-06
-6.005333716530004e-06
-4.034788730677974e-06
1.8615619978845643e-06
2.278123361065809e-06
4.9391850893698575e-06
8.54291340601776e-06
1.0940913796275709e-05
1.3314320483459596e-05
1.5360162990418758e-05
2.0386199594213394e-05
2.2783895474276505e-05
2.5815229719228228e-05
3.1777738342952944e-05
3.409444411772711e-05
3.889812381885349e-05
4.199320505904325e-05
4.3752030876476056e-05
4.736835285257257e-05
4.7450462773213076e-05
4.82653790072618e-05
4.6848812928601546e-05
3.9674694392033416e-05
3.3599542746287625e-05
2.741501333503038e-05
2.5500182630366908e-05
2.0798881507744227e-05
1.5622330636233528e-05
1.2501746255111357e-05
3.1391157335747266e-06
-3.8133056250444497e-06
-1.0364547676999791e-05
-1.5631505618785013e-05
-1.676799303140797e-05
-1.8918435500836495e-05
-1.75971237581507e-05
-1.790939455759144e-05
-1.9861063378812105e-05
-1.9401617350922606e-05
-2.2166079190810706e-05
-2.2049616802632954e-05
-2.232470325225222e-05
-2.0164664761068707e-05
-1.5679449404615298e-05
-1.5085275549608923e-05
-1.3131508239894174e-05
-1.4410255687380413e-05
-1.5546081158390734e-05
-1.3416769547802687e-05
-1.0826353729953553e-05
-7.315247444239503e-06
-8.548429548227432e-06
-9.001191358493088e-06
-5.391600723214651e-06
-6.074429336422327e-06
-4.125801865484391e-06
-4.025733971957379e-06
-4.840310907638923e-06
-2.2256740521697793e-06
-2.002948349399958e-06
1.23252038974897e-06
-4.3563341023400426e-07
-4.892571951131686e-06
-2.9748288739028794e-06
-2.4748172791078105e-06
8.440571264145547e-07
3.669943168915779e-06
3.971794967583264e-06
2.011756691899791e-06
-8.970421845333476e-07
1.1788168308157765e-06
1.9970714788541954e-06
4.325273948779795e-06
9.292090567214473e-06
9.8303530648991e-06
1.070806712277772e-05
7.3291090529892244e-06
5.743100814470381e-06
9.235087475190085e-06
9.069884640666714e-06
1.0886960922107392e-05
1.0497463847514155e-05
8.147038727202016e-06
4.241027511397988e-06
-4.047557581543515e-06
-7.345133212766086e-06
-1.1969759668772895e-05
-1.4616471162298694e-05
-1.1542282265963877e-05
-1.4222960317056277e-05
-1.6059938729995338e-05
-1.8601908493565134e-05
-2.191928041384017e-05
-2.2614024601352867e-05
-2.5190160556576302e-05
-2.5253382318624062e-05
-2.575041054342364e-05
-2.979707829808831e-05
-3.236095341208056e-05
-3.586847424230655e-05
-4.014951076669604e-05
-4.920804821040292e-05
-6.03859939474205e-05
-6.90685708377714e-05
-7.875393339418224e-05
-7.328034268994088e-05
-5.019505482550812e-05
-1.0771733627734648e-05
4.6362997522919613e-05
0.00011538426963397796
0.00018964102690688378
0.0002449635875336753
0.0002605192984219684
0.00022741122364777766
0.0001444097865146432
4.581397882930105e-05
-3.661691056322525e-05
-8.5018757204125e-05
-9.760147662518648e-05
-8.968724290525643e-05
-6.995930118591787e-05
-5.31629160036573e-05
-4.0971864223138255e-05
-3.0070262141634885e-05
-2.5829570574842364e-05
-2.269056898285271e-05
-2.3428133886227442e-05
-2.420658995561098e-05
-1.9834253521366918e-05
-1.8422391235617397e-05
-1.394266206489192e-05
-1.1810030514425307e-05
-1.4558740986103658e-05
-1.6501573156801896e-05
-1.9382236416731757e-05
-1.9931615724999574e-05
-1.9838174807773612e-05
-1.8472632689281454e-05
-1.561265378313692e-05
-1.4989649002927763e-05
-1.1765108922645595e-05
-1.0476721286067914e-05
-1.09179371747814e-05
-9.074941942799342e-06
-1.1380258911231067e-05
-1.0501132976514782e-05
-9.260257627374813e-06
-8.582839029713796e-06
-4.76009898875418e-06
-1.0149569220629928e-06
3.965697203511809e-06
6.467565299317357e-06
8.403893843933474e-06
1.2213462241561501e-05
1.1311074274544808e-05
1.4470661938048579e-05
1.894003560209967e-05
2.33518917980291e-05
2.9224692468687863e-05
3.180684291237412e-05
3.639226520135708e-05
3.745581278735699e-05
3.770010033576909e-05
4.1220814352982416e-05
4.018219203771878e-05
4.222358495553635e-05
4.3580620285865734e-05
4.384195239026667e-05
4.290428319109196e-05
3.522628850305409e-05
3.107531068735625e-05
2.46367168301731e-05
1.5952286275933147e-05
1.3082550935905601e-05
7.786345122440252e-06
2.2588619685848244e-06
-4.138057249747362e-06
-9.947367061613477e-06
-1.2051939620505436e-05
-1.7102468461871467e-05
-1.7948105664800096e-05
-1.855054921406918e-05
-2.1514594891414163e-05
-2.1413698902961187e-05
-2.2284740225586575e-05
-2.155214076537959e-05
-1.9871921722369734e-05
-2.057129256627377e-05
-2.0261813858724054e-05
-2.0115219513172633e-05
-1.7805765651246475e-05
-1.578431744064801e-05
-1.3520273000722227e-05
-1.132192153363576e-05
-1.2844893319652329e-05
-1.0207660125161055e-05
-9.237960227892472e-06
-1.0835874206804874e-05
-8.86084956164268e-06
-7.002230063335446e-06
-4.319472736824537e-06
-4.262813661171094e-06
-5.289997602631047e-06
-4.1076208958656935e-06
-6.782854029552254e-06
-6.010339120621211e-06
-5.751652452090639e-06
-7.804320944160281e-06
-7.656553179913317e-06
-8.63920763549686e-06
-6.262978104132344e-06
-4.3695657154785295e-06
-3.574931156435923e-06
-6.354838433253462e-08
-6.583547360605735e-07
1.062443402588542e-06
3.832802519809775e-06
5.760562032719463e-06
1.1187363668341277e-05
1.1875019197304937e-05
1.461765594967801e-05
1.3971632881748519e-05
8.556587260954984e-06
7.051517286527087e-06
4.914229918995261e-06
6.059607699171465e-06
5.660153078679286e-06
5.2912126875526155e-06
7.73388194375002e-06
3.431835182254872e-06
2.8634557907025737e-06
-3.14011003865744e-07
-7.954521322517394e-06
-1.1755819969039294e-05
-1.5835385454465722e-05
-1.7866781320208247e-05
-2.00562407144389e-05
-2.1529432615352562e-05
-2.0709490797798935e-05
-2.3887303257197345e-05
-2.441625895244215e-05
-2.619779223778096e-05
-2.9678424880330567e-05
-2.7825199708786386e-05
-2.9433590327698766e-05
-3.0534533152604126e-05
-3.4377833571852534e-05
-4.634829633687332e-05
-5.804976257195449e-05
-7.057854185177348e-05
-7.850797277342281e-05
-7.795572395252748e-05
-6.037588758545098e-05
-1.7545582352340716e-05
3.821884808985487e-05
0.00010940599742070845
0.00018414832771895817
0.00023825235217600493
0.0002543171233924113
0.00021874599900684188
0.00014111763562141277
4.4245516789942485e-05
-4.0324407279968e-05
-8.647986612686509e-05
-0.00010101187984901117
-9.056438858578986e-05
-6.836416866917716e-05
-4.826011178238332e-05
-3.20609874506772e-05
-2.4219700435423874e-05
-2.1041968295776314e-05
-2.2136115489956865e-05
-2.4234134855305456e-05
-2.2936739185297483e-05
-2.104171653627418e-05
-1.9169658457940386e-05
-1.9202853593469627e-05
-1.8787768681249872e-05
-1.5941391325213772e-05
-1.5605686712660827e-05
-1.3880419828637969e-05
-1.5048347620449931e-05
-1.783361551588314e-05
-1.802572381848222e-05
-1.777609054443019e-05
-1.460431718669497e-05
-9.736465301557473e-06
-7.053624244690582e-06
-4.43016881490621e-06
-5.609808454209997e-06
-8.28191383561716e-06
-1.104871836332677e-05
-1.1709585578500992e-05
-9.383279177654913e-06
-6.913841843925184e-06
-1.1206882390979445e-06
1.2076313851139275e-06
1.5127776009649097e-06
4.627786211131024e-06
6.795246520141518e-06
1.1890613222931279e-05
1.4290497574620531e-05
1.6748635630392528e-05
2.4487224550284736e-05
2.6180224779182026e-05
3.144752594153033e-05
3.7455894926097244e-05
3.842779381102446e-05
4.014101256188951e-05
4.0665101153081196e-05
4.068004773216671e-05
3.8162041619216325e-05
3.616254798544105e-05
3.8659058759549225e-05
3.766209181321756e-05
3.680936754335562e-05
3.548970227029713e-05
3.0331553205087403e-05
2.310198357236004e-05
1.3807542018184904e-05
7.82316794811777e-06
3.677471340779448e-07
-8.228519789099664e-06
-1.1875664938543196e-05
-1.4432803368435998e-05
-1.7013572801261034e-05
-2.0002011297037825e-05
-2.0768267233961524e-05
-1.9028663587050687e-05
-2.1408614827578276e-05
-1.8957000065711327e-05
-1.7940174075192772e-05
-2.0672853622727416e-05
-1.952011655248498e-05
-1.952772487356924e-05
-1.7729008675360092e-05
-1.585237492918168e-05
-1.5754429682601767e-05
-1.1999047842436994e-05
-1.1606092130023171e-05
-8.57788444363905e-06
-7.469549473171355e-06
-9.929398231633968e-06
-9.147024627509381e-06
-1.1408340583329846e-05
-8.69711720952182e-06
-4.638689517832972e-06
-5.852236938608257e-06
-5.261535420686414e-06
-5.55937737090062e-06
-4.924851054965984e-06
-4.600899103479605e-06
-4.712789973382314e-06
-2.727409935232572e-06
-7.04325401557071e-06
-7.798560204719251e-06
-7.088589200066053e-06
-6.371135157223762e-06
-1.3244496130937478e-06
2.539708816584607e-07
2.127741879576206e-06
2.1160599317227025e-06
1.412794290445163e-07
3.1511928000327316e-06
2.9321598162823648e-06
5.305128752297605e-06
9.298441852934047e-06
1.0032417208094557e-05
1.2318448000314675e-05
1.1637966167654668e-05
1.212239345704802e-05
1.2029393928969512e-05
7.360034373959934e-06
6.428000460800831e-06
5.381936716730706e-06
4.655821328469756e-06
4.325880865962972e-06
1.754371851347969e-06
-3.371985712874448e-08
-5.6612087178109505e-06
-8.816666479560809e-06
-1.0257595533857966e-05
-1.3320853327059012e-05
-1.3850944753812655e-05
-1.5493467742544453e-05
-1.603461731747302e-05
-1.813470214528934e-05
-2.17501755628291e-05
-2.1554580939664447e-05
-2.5084498361138685e-05
-2.7027769419873948e-05
-2.8462171485443832e-05
-3.2631710382702295e-05
-3.515278979193681e-05
-3.9731708852741576e-05
-4.2658155621211336e-05
-5.0062820946550346e-05
-6.287327573772927e-05
-6.96202234280463e-05
-7.237038329321877e-05
-6.303699990439782e-05
-3.476349456832395e-05
9.490497575370682e-06
7.14725815669226e-05
0.00014130740180462453
0.00020859488807900561
0.00024707718864647177
0.00023742352669842148
0.00018141264013138425
8.997552862410885e-05
4.686549459620437e-07
-6.339608222560855e-05
-9.441241496688235e-05
-9.196175994929945e-05
-7.725416458015388e-05
-5.787899891629422e-05
-3.9769336979134096e-05
-2.9249115016227734e-05
-2.3139333961808006e-05
-2.1920231290550873e-05
-1.927529586964738e-05
-1.7510785596641654e-05
-1.8574042144337e-05
-1.696708903864419e-05
-1.7703141395486455e-05
-1.9056115149851394e-05
-1.9586645237268385e-05
-2.015141473066251e-05
-1.693317335593747e-05
-1.7290842947659257e-05
-1.5921751241876336e-05
-1.3821269988056883e-05
-1.3586905481588474e-05
-1.0084023358558625e-05
-8.37520417462656e-06
-6.903547728143167e-06
-7.085955644470232e-06
-1.0278312288392044e-05
-9.624009578601544e-06
-1.0360959777244716e-05
-9.883250754683104e-06
-7.827576212093845e-06
-6.775698523142637e-06
-4.847980278555042e-06
-3.863114670821233e-06
4.980419134881231e-07
3.7588109194075514e-06
4.265662653324398e-06
9.540580151679023e-06
1.4017108071584516e-05
2.3055624183143664e-05
4.021821729338626e-05
4.2323492152718245e-05
3.4109670139059745e-05
3.508979108346466e-05
3.683469867610256e-05
3.725296789980348e-05
4.167340148342191e-05
4.367354353007613e-05
4.506409203486328e-05
4.4193656833613204e-05
4.177777242375669e-05
4.156383050712975e-05
3.744927317939073e-05
3.3367087326041656e-05
2.8010644143705576e-05
1.7909477548982977e-05
1.0128170060852426e-05
2.6811737257048662e-06
-2.22658366055839e-06
-8.149809957558318e-06
-1.5469098400444636e-05
-1.8576800641767477e-05
-2.218302626033619e-05
-2.2457583440882445e-05
-2.237225851331459e-05
-2.0675951759585587e-05
-1.591689800761742e-05
-1.799941367153224e-05
-1.8332810270749178e-05
-1.968284442455115e-05
-2.44108703668644e-05
-2.247834777335811e-05
-1.7829343448738655e-05
-1.2343394644176442e-05
-8.213013813929138e-06
-8.418511072250112e-06
-9.490847787674284e-06
-1.2654391866817605e-05
-1.3348634809062787e-05
-1.1890807513736945e-05
-1.1681983380640304e-05
-1.1663479767776153e-05
-1.4173245062920614e-05
-1.107044948867042e-05
-4.781878828907793e-06
-1.950849082277273e-06
2.983683998536435e-06
3.150151599129458e-06
1.6293884641527256e-06
1.4984407243900932e-06
-5.528329438675428e-08
1.984987306968833e-06
2.990343546116492e-07
-1.0780980232993898e-06
-3.307551992293156e-07
-7.33829949695064e-07
-6.910877345944755e-07
-2.863324652935262e-06
-4.44551943701299e-06
-5.926466883465764e-06
-6.938068452200241e-06
-2.5230055484826153e-06
-2.0251455339348468e-06
-9.760657349033863e-07
8.819043841867824e-07
-2.3756268774377531e-07
2.578157136667869e-06
5.110361541937891e-06
9.892357979879307e-06
1.1406289445403672e-05
9.539640132061322e-06
1.0554336029144906e-05
1.0266061394759163e-05
1.0808160936903732e-05
1.0811194442794658e-05
9.514252326425776e-06
9.09520161940236e-06
4.379819415589736e-06
1.1278304441475484e-06
-3.034672488411161e-06
-9.553087352287548e-06
-1.2035145857680618e-05
-1.5216886595226242e-05
-1.626099822260585e-05
-1.749921250393527e-05
-1.979329761070403e-05
-1.788872532415553e-05
-2.0523760895230225e-05
-1.9829545919947122e-05
-1.743192041203656e-05
-2.100887815004171e-05
-2.239434252260253e-05
-2.4927931974616513e-05
-2.609728306879333e-05
-2.6894740130956052e-05
-3.358699171940316e-05
-4.055828287619079e-05
-5.286785267344385e-05
-6.576918485734495e-05
-7.458610838284585e-05
-7.635544852746534e-05
-5.703755630293017e-05
-1.9741535197681515e-05
3.685883581283633e-05
0.00010730894979360528
0.0001794304411646408
0.00023611588250105342
0.0002501353050092803
0.00021730765405436614
0.00013976988424246883
4.010230162521111e-05
-3.983831072673638e-05
-8.940905297549762e-05
-0.00010367938824629164
-9.318426805293711e-05
-7.532984602676152e-05
-5.610310029169341e-05
-4.4410277553197375e-05
-3.3371544759575045e-05
-2.6766327380300936e-05
-2.5569812578396522e-05
-1.939026134323285e-05
-1.7582081170530728e-05
-1.7254795466215e-05
-1.4411324059437902e-05
-1.5889807514213317e-05
-1.4763401964046352e-05
-1.5636984699085588e-05
-1.5370239623280213e-05
-1.4401598662061588e-05
-1.6211417687372887e-05
-1.4067293932384928e-05
-1.4835600723017706e-05
-1.4060942078231164e-05
-1.1654772094971122e-05
-1.199327039103082e-05
-9.71837397401032e-06
-1.0645311704138294e-05
-1.2076609209543676e-05
-1.0769366667773284e-05
-1.0259334203510662e-05
-7.032031192011345e-06
-3.6689384614874143e-06
4.891845151178131e-07
1.1050075841012585e-06
-2.437240198105428e-06
-5.532698992283258e-07
2.448123950671288e-06
8.03629836809705e-06
1.5357309052888013e-05
1.8717340083185263e-05
2.2040247301902127e-05
2.267900111974086e-05
2.6983075997577544e-05
3.2117798184572166e-05
3.481068142718868e-05
3.8800604500011104e-05
4.0113363354521425e-05
4.1986071721566987e-05
4.414272405028896e-05
4.594355601739153e-05
4.992491267330479e-05
4.871973885656189e-05
4.611049791947153e-05
4.1734484000244265e-05
3.4940989962706226e-05
2.9594008481126366e-05
2.067079157086482e-05
1.575027710032373e-05
9.718569742744876e-06
4.645339686248917e-07
-2.3097830421647814e-06
-7.0628986463816545e-06
-1.269096782152701e-05
-1.5285338633930223e-05
-1.882657301166546e-05
-1.815662278659147e-05
-1.8536651396061643e-05
-1.739355036534107e-05
-1.7745042612204998e-05
-2.1308229008809576e-05
-2.2572791522179614e-05
-2.459112300812194e-05
-2.2875036847835872e-05
-2.007635811196451e-05
-1.967766803545601e-05
-1.776853298451897e-05
-2.019243078166255e-05
-1.9644970393528638e-05
-1.693909024425011e-05
-1.6546540734907467e-05
-1.2451554937342735e-05
-9.796849894883053e-06
-4.7817380846026936e-06
5.65796938190033e-07
9.850253945842269e-08
8.311012607009616e-07
-2.7811029212898575e-07
-1.1022547710126673e-06
-7.99896668013389e-07
-2.947234349903738e-06
-3.760501385841053e-06
-8.405499499986036e-06
-1.1688030042478204e-05
-9.763698244569241e-06
-9.791382581170183e-06
-6.755397407687269e-06
-4.918573210943578e-06
-6.265963122586982e-06
-7.25712891380681e-06
-8.600149328685802e-06
-5.37982782589097e-06
-2.229602046099899e-06
2.6424921770740184e-06
8.061065386755217e-06
7.774192908982513e-06
7.517768324305507e-06
3.855699731047935e-06
4.765514006521698e-06
8.421920881573897e-06
7.5559906349553785e-06
1.0136510411484778e-05
1.0077896490656713e-05
8.219757148708595e-06
8.061984715368453e-06
6.072995802242076e-06
8.04528252729142e-06
7.737304883903562e-06
7.930932440558536e-06
8.26912105367228e-06
4.1271774762208224e-06
6.754568744327116e-07
-5.3095523071533535e-06
-1.0274908504470659e-05
-1.354455969249102e-05
-1.7889090827338805e-05
-1.8003550735556928e-05
-1.883230783050749e-05
-1.810534257629115e-05
-1.594523257608671e-05
-1.707614467250096e-05
-1.6986630328119645e-05
-2.1585805825452553e-05
-2.4974806706268282e-05
-2.7568882217110513e-05
-3.382353901315582e-05
-3.454953838399888e-05
-3.743372377584819e-05
-4.326079908878455e-05
-5.2255300829529006e-05
-6.525089878550716e-05
-7.102724111973657e-05
-7.106058802719417e-05
-5.331779198058939e-05
-1.3148965706477611e-05
3.891194614880078e-05
0.00010611481951627866
0.00017977440438698977
0.00023846434044116904
0.00025480926524323877
0.00021992132309378576
0.00014208637981028005
3.6937903644229664e-05
-5.0109471601444966e-05
-9.818611806622357e-05
-0.00011378690174979056
-0.00010255437979367343
-8.071661420672172e-05
-5.627697299814827e-05
-3.7465820639681624e-05
-2.7617621071840404e-05
-1.8977679985709983e-05
-1.7736158554271242e-05
-1.830246969802829e-05
-1.5502843098147423e-05
-1.51653609918867e-05
-1.2828769627049041e-05
-1.3676002367901674e-05
-1.4187251508701593e-05
-1.33982028387436e-05
-1.5021915089619142e-05
-1.3053121051598282e-05
-1.2956133105035406e-05
-1.4324395749554242e-05
-1.591568542380628e-05
-1.7485793534888217e-05
-1.4696003177050443e-05
-1.3832075410391553e-05
-1.0701694293402397e-05
-6.8307967353575805e-06
-8.604719198501698e-06
-8.095566386145947e-06
-7.4256806215089455e-06
-5.828869916513213e-06
-5.008857272059686e-06
-4.99823778454811e-06
-2.1162717871447967e-06
-6.493079354186193e-07
3.1523616712547664e-06
7.349371003328997e-06
7.779437055432936e-06
1.1627841956851626e-05
1.4799654366015602e-05
1.893332438385187e-05
2.461162955569307e-05
2.7844768681006826e-05
3.275117006751316e-05
3.537873510595091e-05
3.8280944124835514e-05
4.1891282080541714e-05
4.473793870829468e-05
5.004543220366031e-05
5.034386936131341e-05
4.955792979899343e-05
4.82541919382129e-05
4.167501464280576e-05
3.7172809982166655e-05
3.2818962210967584e-05
2.9740425929958292e-05
2.5007224280670926e-05
1.5666977674300142e-05
9.564471724843315e-06
2.4433086878161703e-06
-3.8106373949631234e-06
-5.411887286754791e-06
-9.744363524077926e-06
-1.2620374377547705e-05
-1.5672825725232542e-05
-1.7061454741451598e-05
-1.904105363337294e-05
-2.1576153415026056e-05
-1.9904493001376977e-05
-2.09402599580244e-05
-1.9684021367538662e-05
-1.9218096156237152e-05
-2.36261712416308e-05
-2.3159350689638813e-05
-2.4221107594257774e-05
-2.2195730707608163e-05
-1.555635145678025e-05
-1.4572920179034554e-05
-1.3201250965266809e-05
-1.2917317917526816e-05
-1.013622437540107e-05
-5.950337083504564e-06
-5.441265045647015e-06
-2.701770085877797e-06
-4.614146860149049e-06
-7.270365244949062e-06
-6.152764512989961e-06
-6.849576493550558e-06
-3.4875867527262017e-06
-3.4472566881049715e-06
-3.0987243917479645e-06
-2.055539141565532e-06
-5.001181989428005e-06
-4.2792888734766166e-06
-3.1857630347076338e-06
-1.4801227052885224e-06
8.335963457284379e-07
1.2407046483531303e-06
3.4584737136356125e-06
-5.351908498596458e-07
-3.858082891383674e-06
-1.7117785660047957e-06
-2.4674080236763984e-06
1.3698688121621672e-06
5.054881398791622e-06
6.961208953271125e-06
5.628035353311134e-06
1.7000593288685195e-07
-9.060758543455449e-07
1.0018953844337375e-07
3.4874875609602896e-06
9.14709107746603e-06
1.1658619030185946e-05
1.4154725818116276e-05
1.0330383247492136e-05
8.115807816011511e-06
8.156675562531746e-06
4.4851519191979605e-06
6.4730946292002045e-06
7.742900606899639e-06
5.253022266060725e-06
3.8429517417171155e-06
-1.7214269405485538e-06
-6.830616428032954e-06
-1.3341727537863335e-05
-1.783190748483321e-05
-1.739576089221373e-05
-1.969992393924258e-05
-1.7946223579201614e-05
-1.6633475752314553e-05
-1.555032662281519e-05
-1.4770211009818013e-05
-1.7996306155509956e-05
-1.987863669228318e-05
-2.536398039865162e-05
-3.0291492350897897e-05
-3.1636699532100465e-05
-3.626970408276975e-05
-3.953545689228122e-05
-4.917284366001695e-05
-6.263836417019775e-05
-7.208390013602184e-05
-7.836666657112801e-05
-6.742741334164748e-05
-3.947051936847856e-05
2.5816036099968187e-06
6.150446449737501e-05
0.00013045485621887565
0.00020316232024697456
0.0002515002472591732
0.0002564131442568396
0.00021196273132773058
0.00012218835172461695
2.1739959720434854e-05
-5.614434087419795e-05
-9.702974961101063e-05
-0.00010565206167711949
-9.635112127170942e-05
-7.67304023838733e-05
-5.929693895723176e-05
-4.474925901831739e-05
-3.184434024205984e-05
-2.6688329512580822e-05
-2.177284426352344e-05
-1.9407618765399093e-05
-1.575979854351317e-05
-1.3465373513099621e-05
-1.651957717285768e-05
-1.783440626468291e-05
-2.076747102819354e-05
-2.1433475978938077e-05
-1.8592887329305086e-05
-1.7121628957283974e-05
-1.3815632996738714e-05
-1.3182968189084932e-05
-1.1838168916256109e-05
-8.957012425980793e-06
-1.0786640757487476e-05
-1.0807709372784302e-05
-1.0965704632326378e-05
-8.240039733209414e-06
-5.075479293736862e-06
-4.231067862292548e-06
5.86132671287487e-07
-5.812431709273369e-07
-3.3988806080742506e-06
-3.156322236463893e-06
-6.180013485845848e-06
-4.897699170669512e-06
-1.664018270730594e-06
2.4383884920098353e-06
7.741085369161738e-06
9.691669617950538e-06
1.4490799003397115e-05
1.84649589982655e-05
2.3043300245717546e-05
2.9432894677938748e-05
3.2008637333547085e-05
3.635236600985081e-05
3.590034299350009e-05
3.687064668156381e-05
4.209032732660489e-05
4.280232178643928e-05
4.638607703100206e-05
4.724857120663728e-05
4.654201092080257e-05
4.5666451057968516e-05
3.884754062255524e-05
3.4024115961983625e-05
2.9153545199278597e-05
2.280023778666873e-05
1.7928888610185822e-05
1.1910400587566983e-05
6.418114878670167e-06
-2.5422365865779284e-06
-7.82114159392222e-06
-1.2518574351361167e-05
-2.1789880292999442e-05
-2.4690010718586564e-05
-2.7285842634228175e-05
-2.8021018351864768e-05
-2.3512091729571694e-05
-2.0375360293201084e-05
-1.5005689078861906e-05
-1.4481913012787118e-05
-1.4971819496167882e-05
-1.4536810510890064e-05
-1.8076083279083832e-05
-1.7327316641058133e-05
-1.6269294064841233e-05
-1.3864292668586131e-05
-1.1531076211213076e-05
-1.4628634914970462e-05
-1.315990942885037e-05
-1.1802748304035049e-05
-1.2131928087910637e-05
-9.038205917022424e-06
-8.510296709118848e-06
-7.392046256882168e-06
-5.973909821932466e-06
-3.461349820099713e-06
4.244839146849699e-08
-1.4502396084026259e-06
-2.9809933721480775e-07
3.9775318327883724e-07
-4.4706433754981845e-07
-7.031622999420506e-07
-2.2343691625792417e-06
-1.9868877529916062e-06
-4.056142017816455e-06
-3.6695823837362695e-06
-1.07147354810877e-06
-3.478404153156589e-06
-4.747593266074546e-06
-5.713072539492714e-06
-5.4948075671745755e-06
-5.5252209563150245e-06
-6.867124568543659e-06
-3.62380342266988e-06
-1.8025891108663927e-06
4.352727955847513e-07
4.634675917714048e-06
2.943777758446231e-06
2.9664058729395038e-06
1.6831522202664928e-06
1.9890475186912226e-06
6.993550528022752e-06
9.08504335939142e-06
1.2386130663344375e-05
1.3592032530596043e-05
1.1085881737926684e-05
1.0515836208924156e-05
8.693937900261517e-06
9.037933921263175e-06
6.680574244910531e-06
4.063499716266961e-06
5.360796990316885e-06
1.0295084393874276e-06
-2.4190686644942616e-06
-5.887308191176999e-06
-9.003040247534955e-06
-1.1544385870365659e-05
-1.5706343219790142e-05
-1.6376202893297886e-05
-1.9132020440792985e-05
-2.229135395737103e-05
-2.2373457738922298e-05
-2.5584777972653683e-05
-2.6843767045647837e-05
-2.81116255678171e-05
-2.9616862661896448e-05
-3.0420024643262877e-05
-3.3177897023506375e-05
-3.339820608516675e-05
-3.636893819702891e-05
-4.1964664490024006e-05
-5.137388819775879e-05
-6.495835094710856e-05
-7.32855738760918e-05
-7.495735167140083e-05
-6.05114756808689e-05
-2.1375688788793923e-05
2.952803612288335e-05
9.370902915861734e-05
0.00016653321313242486
0.00022932525996566255
0.000262543199596621
0.00024677259835925724
0.0001854393112807884
8.989792263491836e-05
-4.201336594178429e-06
-6.724577804106957e-05
-9.822040578910674e-05
-9.825129768614715e-05
-8.544171799940159e-05
-6.694373058735437e-05
-4.9771073349802464e-05
-3.953926886879344e-05
-3.0434861514549993e-05
-2.5749752524006908e-05
-2.4267619039619603e-05
-2.3140293649248633e-05
-2.2371407965238177e-05
-1.9256925099853106e-05
-1.9863594559410558e-05
-1.882483155668524e-05
-1.6265747206034575e-05
-1.8270131135977863e-05
-1.6860660366546654e-05
-1.74642743786535e-05
-1.7675563753982715e-05
-1.8623515302351734e-05
-2.332869468091303e-05
-2.1940068734238594e-05
-1.9642576035039383e-05
-1.6591063854320964e-05
-1.0201552527178137e-05
-8.089722371096286e-06
-6.445377550789999e-06
-6.679951297883235e-06
-6.416045209789445e-06
-3.281484339368035e-06
-3.988600781212881e-06
-2.974493781948695e-06
-2.650441899731959e-06
-2.9194972057666746e-06
-6.131328973424388e-07
1.2948526659783965e-06
5.880965375126834e-06
5.839056598233583e-06
8.748119853407843e-06
1.7694634777853935e-05
2.2070176726174395e-05
3.0570929084206e-05
3.7686765949729306e-05
4.116070704185404e-05
4.47811303843082e-05
4.3971803222575545e-05
4.453068277143757e-05
4.351090052523432e-05
4.2661475390559644e-05
4.545829614244212e-05
4.303052980958455e-05
4.155486453782942e-05
3.745203400740138e-05
2.922064885524378e-05
2.135503262934435e-05
1.3063301537385996e-05
1.0817742804647423e-05
1.0223931553809962e-05
7.039975287170819e-06
4.084103693458019e-06
-4.639571443476598e-06
-1.3104144102271675e-05
-2.151057219634822e-05
-2.771670182255548e-05
-2.7194708252409328e-05
-2.864685109216225e-05
-2.480162271467634e-05
-2.1300380581124045e-05
-2.093515530532386e-05
-2.0834980773543066e-05
-2.5080275918298867e-05
-2.3995722699510225e-05
-2.158749754244127e-05
-2.0618298833596782e-05
-1.4091375760472147e-05
-1.2589464404300088e-05
-1.1886158858942508e-05
-8.5251297718969e-06
-6.253193191696482e-06
-6.113674373864342e-06
-8.58450692931001e-06
-8.3091542251168e-06
-9.421634331374662e-06
-1.0899795199748041e-05
-1.0189968179474818e-05
-1.2595966779826995e-05
-9.025076508351049e-06
-5.130216209181526e-06
-2.1404986227935296e-06
3.1995260769690503e-06
8.567863005737308e-07
-1.580346179252956e-06
-4.780093831868726e-07
3.949818392356974e-06
7.150767999064556e-06
5.400350232775963e-06
6.076320175907313e-06
9.393946811542264e-07
-5.626381266665703e-06
-4.972444742179505e-06
-5.807157322124112e-06
-3.771425099330372e-06
-2.2871995497553144e-06
-3.707125188157079e-06
-4.7432134806513204e-06
-7.4402806831130874e-06
-5.9976014767926245e-06
-4.685858016273414e-06
-6.697278251976968e-06
-7.986931223058491e-06
-1.1185101186583779e-05
-1.0551781656431558e-05
-1.0558130838944635e-05
-1.0939292451439542e-05
-9.93637041801776e-06
-1.6404839925598935e-05
-2.0668821548497363e-05
-2.2942757823329885e-05
-2.152280382006211e-05
-1.781619454277461e-05
-1.6864294934748614e-05
-1.4691661590404692e-05
-1.9427321376497275e-05
-2.6564704228349e-05
-3.638478546008628e-05
-5.303729648176159e-05
-5.170000497400906e-05
-3.34730326017052e-05
8.33000206057477e-06
7.517217539998455e-05
0.00014815433110015874
0.00021633033128409807
0.0002546763536201979
0.0002471971678232876
0.0001945270170722324
0.00010218635281944444
8.84938253875589e-06
-6.1006826911125245e-05
-9.696184747554071e-05
-9.709653653544592e-05
-8.387813386434573e-05
-6.565326901863955e-05
-5.219405983325487e-05
-4.361250830697827e-05
-3.5590819379649474e-05
-3.507761311993818e-05
-3.123484452771663e-05
-2.7558025351481774e-05
-2.6777293101076793e-05
-2.130958648649539e-05
-1.888099023972245e-05
-1.7381723750986566e-05
-1.8335790798573726e-05
-1.9457085954854847e-05
-1.7752313397068065e-05
-1.86666010222325e-05
-1.6073910387603974e-05
-1.5076896147547814e-05
-1.747738508584007e-05
-1.635309848779798e-05
-1.567449885442329e-05
-1.3133400784681726e-05
-1.3217123125741637e-05
-1.3781612608454452e-05
-1.2156656964634749e-05
-1.4744962300028419e-05
-1.4501000578093226e-05
-1.3564448863689904e-05
-1.2208573139105283e-05
-9.323076426426269e-06
-9.284901693717984e-06
-5.6741335470178456e-06
-2.830461710345844e-06
4.483588895709545e-07
8.864642268235912e-06
1.2625476131233881e-05
1.826075737199062e-05
2.1878843313061225e-05
2.5725491411776602e-05
3.0994322401056706e-05
3.176076558020213e-05
3.417368259306386e-05
3.5949791708844714e-05
3.659665543409574e-05
4.057888321540304e-05
4.424035819283745e-05
4.8186756941959175e-05
4.7326011156201275e-05
4.465959511890105e-05
4.42302421106433e-05
3.803715270578323e-05
3.384572278264386e-05
3.059088635382068e-05
2.5622842485972797e-05
2.218846816504083e-05
1.4500400766337407e-05
6.799423090342316e-06
-2.2068524572205206e-06
-1.2139068587657675e-05
-1.6013604977160867e-05
-2.1759703201951197e-05
-2.343911313573699e-05
-2.2773501768824644e-05
-2.3341073074334417e-05
-2.0220773762957833e-05
-2.1124256420534948e-05
-2.0557339439619682e-05
-1.982522985599644e-05
-1.9355382278263278e-05
-1.5967844660735864e-05
-1.623571142772562e-05
-1.4416132898986689e-05
-1.4762794648959243e-05
-1.5617679309798405e-05
-9.640665837196138e-06
-1.0172167378641461e-05
-1.1139622984046582e-05
-1.1451691307229339e-05
-1.2544623643861996e-05
-1.0734725208294549e-05
-9.369967415295832e-06
-6.360334623423114e-06
-4.868797873314179e-06
-5.809201013562415e-06
-3.658058119526686e-06
-1.21648366757654e-06
3.625689259934006e-07
2.1681918838112324e-06
2.9178391400819237e-06
2.0451550426514586e-06
-1.652569721954933e-06
2.3463201159756863e-07
2.1856085368199274e-06
1.7356608168483945e-06
3.109010435764503e-06
7.64053424973099e-08
-2.140870037692366e-06
-3.692627217333211e-06
-3.5765399388765218e-06
9.906619879984646e-07
-1.46464395811563e-06
-2.470645085850265e-06
-3.028543801519845e-06
-6.220105376542051e-06
-7.4134810574832954e-06
-8.947866092512413e-06
-7.297981596821046e-06
-6.417683323434176e-06
-5.9264920651003195e-06
-2.231394034879486e-06
-3.361040285199124e-06
-1.4963272860768484e-06
6.873845563859504e-07
2.784135688216338e-06
5.218160310960229e-06
2.670171284080425e-07
5.550782589125447e-07
6.716999223499442e-07
-6.948523605387891e-07
5.09680631921583e-06
7.80121632715236e-06
9.168576298179687e-06
9.158261946140556e-06
7.076010433593183e-06
9.491560717833636e-06
7.21183295127048e-06
8.053592921442032e-06
1.1030530117750459e-05
1.1323451474254398e-05
9.949999821401434e-06
2.01380555608921e-06
-6.151307445634302e-06
-1.3740829899688833e-05
-2.089849823505574e-05
-2.369424703374534e-05
-2.4591112264715775e-05
-2.3576872365538293e-05
-2.1805546509767737e-05
-1.745448781775849e-05
-1.5115805126697524e-05
-1.956421084514659e-05
-2.0984406887691875e-05
-2.324205985360095e-05
-2.806146011380406e-05
-2.9721833925577812e-05
-3.49862896769082e-05
-4.242528518716426e-05
-5.529338557153096e-05
-6.854182259985464e-05
-7.369541066282181e-05
-7.563459257653449e-05
-6.271663954748874e-05
-2.9011030449055397e-05
2.161062820960069e-05
8.611969252569907e-05
0.0001584117855486511
0.00022630846359561474
0.00026074107876183916
0.00024928925972744764
0.0001941098337852054
9.649563168068198e-05
-1.1908948067684832e-06
-7.115766447896021e-05
-0.0001057850316215081
-0.00010561160672750702
-9.103135147370267e-05
-7.046505515972967e-05
-5.3535044173713686e-05
-4.2197665322873945e-05
-3.1014724243050296e-05
-2.7655764029077545e-05
-2.2283018097368767e-05
-1.8570801614714583e-05
-1.7679331165254553e-05
-1.0838541584234918e-05
-1.253290741942692e-05
-1.5173834867709957e-05
-1.6141967194016615e-05
-1.9030956934784626e-05
-1.826011526873117e-05
-1.915185657708207e-05
-1.7581793542831292e-05
-1.685597709411013e-05
-1.8533532170295075e-05
-1.5851519492571242e-05
-1.5686087579069863e-05
-1.1657753702820628e-05
-8.1604391084511e-06
-8.436672317202465e-06
-8.379728342333692e-06
-1.3089880326333514e-05
-1.2797411443443707e-05
-8.401252500789269e-06
-6.336187027500273e-06
-1.4758737734155147e-06
1.2015382822028187e-06
2.549719908984116e-06
2.79249650247948e-06
4.3992436076223385e-06
1.010069399853819e-05
1.1701033770350477e-05
1.5153561776060087e-05
1.8528459918343287e-05
2.1963007668546197e-05
2.7723788946332206e-05
3.1772410238772864e-05
3.781183329465421e-05
4.1849273941352294e-05
4.195039190335592e-05
4.466430959837453e-05
4.42043541397652e-05
4.350576051592725e-05
4.231247800134952e-05
4.2269780010428804e-05
4.439942739509206e-05
4.2323156264956197e-05
4.207995414162724e-05
3.7504858369175054e-05
2.8363382796214864e-05
2.3084955159902165e-05
1.501040719631419e-05
6.560811470990302e-06
-1.3914325336372713e-06
-9.537642426948878e-06
-1.185223561606108e-05
-1.5442443498159264e-05
-1.777971760930086e-05
-1.9402448174332676e-05
-2.3101427871097258e-05
-2.2308696600248368e-05
-2.2597113172651007e-05
-2.151592775589961e-05
-2.0772766617938032e-05
-2.214096923580655e-05
-2.0390933968883473e-05
-2.1616414187519695e-05
-1.957497084958959e-05
-1.696641146509137e-05
-1.5285775759821263e-05
-1.2075122185706277e-05
-1.4102503541835176e-05
-1.2771209185302723e-05
-1.0495005255961587e-05
-1.0680337709345622e-05
-6.12277335676481e-06
-4.9528192676007166e-06
-5.7379223221687425e-06
-8.625825557828648e-06
-8.935312791891192e-06
-2.725409217418928e-06
-2.6787809588313394e-06
-4.2152612422796665e-07
-7.228153435789864e-07
-6.021317972226825e-06
-6.476408827893465e-06
-5.616615624148835e-06
-2.9728705612797057e-06
-6.851371381344507e-07
-6.670229026894958e-07
1.130421821926575e-06
-1.2840882277487253e-06
-2.551195450450905e-06
-2.3167226004261465e-06
-1.23563552278938e-06
2.878333759781526e-06
3.6862826959804806e-06
4.7494167461081815e-06
3.1436189829037176e-07
-5.589671218331205e-06
-6.632313784393773e-06
-7.705074096975295e-06
-3.1194790608424228e-06
-1.4855851304673706e-07
1.297751168749528e-06
6.526469974232896e-06
4.01514557779592e-06
1.6466058809783135e-06
-4.981155257155478e-07
-4.336447432251589e-06
-3.3765494436011068e-06
-5.833015279677056e-07
4.985771795418259e-06
7.398923230539367e-06
7.907795918526972e-06
1.174148150084875e-05
1.1018138650342735e-05
1.2774062213338766e-05
1.50998009758041e-05
1.3316163688159577e-05
1.1369021308382798e-05
4.884840734575846e-06
8.250357836914191e-07
-4.615587954504008e-06
-1.287168652197579e-05
-1.544596455005376e-05
-1.8196839448592073e-05
-2.0486644814354804e-05
-2.298886079188378e-05
-2.5647710344856023e-05
-2.4828249536312796e-05
-2.5783220678476937e-05
-2.4481010655108548e-05
-2.2293081087809696e-05
-2.282415488252809e-05
-2.3662716387207183e-05
-2.529506582504837e-05
-2.6312404202144535e-05
-2.8957610368252062e-05
-3.486775688088528e-05
-4.151568896304525e-05
-5.4717934062864515e-05
-6.464894005375754e-05
-6.92257530090501e-05
-6.403897066320496e-05
-3.766668618254698e-05
4.247241804478108e-06
6.37798717093574e-05
0.00013480616610195284
0.00020347866148995308
0.00025213952886815605
0.0002557784613941294
0.00021021633506279613
0.00012006913664208696
1.5602348582888226e-05
-6.30507833534466e-05
-0.00010862034372394191
-0.00011635154447731111
-9.938858238456305e-05
-7.603911041087486e-05
-5.289765874749719e-05
-3.821483153387817e-05
-2.8509152684819128e-05
-2.5607954000861355e-05
-2.7439748635060823e-05
-2.48589536226973e-05
-2.4591876183421846e-05
-2.1936761470442434e-05
-1.870500045697554e-05
-1.7418661229839927e-05
-1.4983682717684133e-05
-1.5237465731843258e-05
-1.3212872261192388e-05
-1.1911634828720707e-05
-1.3860276112609426e-05
-1.2977901178601314e-05
-1.3563596894528018e-05
-1.1288320365565596e-05
-8.381251745959162e-06
-6.7829748786607524e-06
-1.4745559155926458e-06
-5.883945959794801e-06
-9.238578456916002e-06
-1.1154119874845492e-05
-1.5469566392312117e-05
-1.23523823845062e-05
-9.114328747727996e-06
-4.498328678437247e-06
-1.7088984805013752e-07
-4.219939455651911e-07
1.2721293956019508e-06
9.415645081389812e-07
3.351291809394752e-06
7.182088722856861e-06
1.0040086692697514e-05
1.4748821797638811e-05
1.730777626107738e-05
2.402802135748061e-05
3.1241369981671596e-05
3.568823757404971e-05
4.3747032691499044e-05
4.6076464116140414e-05
4.785253713635029e-05
4.860600438405527e-05
4.660658720467836e-05
4.891047638011514e-05
4.531030282350912e-05
4.138611836879136e-05
3.8913108483029646e-05
3.605673367701456e-05
3.4709580916114646e-05
2.934759885420135e-05
2.220319964862938e-05
1.3356546617160348e-05
3.6118373145654914e-06
2.6517170681472635e-07
-4.2970391973540245e-06
-8.308792757816263e-06
-1.1895365730651974e-05
-1.754292605937735e-05
-2.074738807777976e-05
-2.554554129119424e-05
-2.504620090348908e-05
-2.2056119121316442e-05
-2.2385937825220026e-05
-1.864206501522858e-05
-1.6789428968877473e-05
-1.7723034204664145e-05
-1.803237222475218e-05
-1.8718264243489102e-05
-1.6978524286059837e-05
-1.7942224360467662e-05
-1.6381130762965768e-05
-1.380826626018461e-05
-1.3408304141648841e-05
-1.0138756351807388e-05
-8.221641905947763e-06
-7.801892309089453e-06
-8.048544998473517e-06
-8.498113572841248e-06
-4.872868714755896e-06
-4.360785851531546e-06
-3.320720793453802e-06
-2.1358521848924283e-06
-3.82796014264386e-06
-2.7055569375988853e-06
-3.5220129461777105e-06
-1.8224622522211575e-06
-1.4523524214382633e-06
-4.734743754397641e-06
-3.1259510819836578e-06
-3.7916348674116307e-06
-4.230269780691742e-06
-2.704565076783183e-06
-3.883226497691794e-06
-5.633574460262025e-07
9.53093604039168e-09
2.533720362407621e-07
1.1721503483386186e-06
-4.29689123393473e-07
-1.0469210565133835e-07
-1.5914404229988577e-06
-1.8108759718415968e-06
-6.280387765400519e-07
-2.0567359797496465e-06
-8.445264256806695e-07
-2.17603945884548e-06
-3.5516880529939954e-06
-3.6347863670016523e-06
-2.9462522661560797e-06
1.092929949209065e-06
3.835943402918929e-06
7.556221703453048e-06
9.541941381030483e-06
8.070577905527898e-06
9.169931615815585e-06
8.369816271169839e-06
7.676359984998271e-06
6.569966899405699e-06
4.287886042675382e-06
6.686663766686252e-06
4.422640813572798e-06
5.187316673982423e-07
-2.9721172722929623e-06
-8.493084578731214e-06
-1.0368731295784528e-05
-1.1847238454265607e-05
-1.3199570446431608e-05
-1.5536574665020453e-05
-1.8743606347015884e-05
-1.7897648490361462e-05
-2.0103586621189606e-05
-2.145439253808945e-05
-2.0915093614348734e-05
-2.4707382749511453e-05
-2.62478947092859e-05
-2.9333035342915537e-05
-3.0112796821413212e-05
-3.217037044578319e-05
-3.906518060148301e-05
-4.565271279943772e-05
-5.888509559781596e-05
-6.887895244744868e-05
-7.053499973608268e-05
-6.352884452098806e-05
-3.6322556240975246e-05
4.260540663381107e-06
6.111518632678781e-05
0.00013325897259619524
0.0002042560409449834
0.00025706311743078913
0.00026242105644769254
0.00021551595193614048
0.00012650876408315526
2.0987184200293996e-05
-5.897273302934991e-05
-0.00010454274513449491
-0.00011423641620922353
-9.907025918209911e-05
-7.759684694974567e-05
-5.641023511770982e-05
-4.1922115997294895e-05
-3.1496822487042664e-05
-2.5669745809864253e-05
-2.4695870649793505e-05
-2.1007543466566858e-05
-1.9539400966550602e-05
-1.7725846021221514e-05
-1.670596276426295e-05
-1.6948872996636055e-05
-1.3772494185104733e-05
-1.4788333487558702e-05
-1.3501384842129482e-05
-9.312157374097296e-06
-1.061633162180442e-05
-1.1108240869361907e-05
-1.2322572672474053e-05
-1.400400918782907e-05
-1.4808006596922496e-05
-1.7000790990095993e-05
-1.4588690930850134e-05
-1.393665132809474e-05
-1.2898232171210111e-05
-9.692514140624553e-06
-1.0497208165816119e-05
-9.27350271240357e-06
-9.173084663416375e-06
-4.859794046296884e-06
1.042950998453307e-06
1.052134280143946e-06
3.983234250881651e-06
6.335515706723527e-06
7.071005995840096e-06
9.513169004549127e-06
1.248920619900673e-05
1.8992591776623158e-05
2.2091269613611075e-05
2.778759630928107e-05
3.31314487311829e-05
3.23315996411111e-05
3.461326411979826e-05
3.6151159065411775e-05
3.92229106864761e-05
4.6056318240061955e-05
5.0396881249525904e-05
5.495256579024499e-05
5.0766621598086203e-05
4.5670330734992604e-05
4.1782978826176986e-05
3.653084121424399e-05
3.4294999352368905e-05
2.8353076686471468e-05
2.1696551812055986e-05
1.375495122601933e-05
4.401621879424056e-06
-4.493097094382392e-08
-4.623116865332122e-06
-1.0110549226283183e-05
-1.5828389621219685e-05
-2.2053917007269774e-05
-2.2642414080564777e-05
-2.4212783557686635e-05
-2.5746821052052837e-05
-2.4096517563521047e-05
-2.427496212931146e-05
-2.2295570204278192e-05
-2.0744785103943286e-05
-1.8727904830484476e-05
-1.6554383705624787e-05
-1.693899741894711e-05
-1.2733812013721035e-05
-9.961038188066595e-06
-8.915637067730131e-06
-7.247595249282313e-06
-8.663242283546424e-06
-7.793620966367598e-06
-1.0185648307015072e-05
-1.0085674489346275e-05
-8.08175093425234e-06
-8.910638086945255e-06
-4.99244259799525e-06
-2.098249751725234e-06
-2.133442933427432e-06
-5.168051472992374e-06
-7.927881767955114e-06
-5.574313036049716e-06
-6.150427623197174e-06
-2.8320264959802444e-06
-6.044288056727964e-07
-2.4767130639702373e-06
-2.4485199787704914e-06
-5.428314580058213e-06
-5.3589219533023424e-06
-3.2226068356067117e-06
-3.888714331878873e-06
5.280623440739873e-07
-1.2274637128939503e-07
-3.127275022052345e-06
-1.4784459949623852e-06
-1.3499013107320934e-06
-3.286884293629555e-07
-4.807554319086194e-07
7.844686251701205e-07
6.147566296021978e-07
-2.7001336206922133e-06
-1.4673672694698325e-06
-2.0077943077012605e-06
-1.0055425718746847e-06
3.2858872600627365e-06
5.7100147614619345e-06
9.370885834414366e-06
7.715076321801462e-06
5.645901921980112e-06
6.6983161559619475e-06
5.709782101348537e-06
7.473365599253157e-06
7.3564701779105235e-06
6.131897919203766e-06
4.9595592486184614e-06
2.539746049023961e-06
4.3748881353167235e-06
7.63455147989589e-07
-4.239169641095941e-06
-7.520068834310223e-06
-1.5519340138325788e-05
-2.000896489562365e-05
-2.232877847063719e-05
-2.1550394990299537e-05
-1.877339417433177e-05
-1.9427173299391143e-05
-1.9221391823975864e-05
-2.2027568945759413e-05
-2.7125411406814237e-05
-3.0434383290867117e-05
-3.220131935677273e-05
-3.0811566034572024e-05
-3.408741139310223e-05
-3.863256569047735e-05
-4.7029434369960654e-05
-6.212857238097058e-05
-7.192412550693916e-05
-7.757482353554224e-05
-7.039789812779418e-05
-4.146840649354999e-05
2.14836353507053e-06
6.326423795144365e-05
0.00013269908316715373
0.00020224877079044745
0.0002548163274127546
0.00026419493315188447
0.00022569435219566003
0.00013845261793221653
3.6882791675907356e-05
-4.3856972467892774e-05
-9.384127633893513e-05
-0.00010477538552322585
-9.386151799617437e-05
-7.65163276810199e-05
-5.7381434771741624e-05
-4.222969727152304e-05
-3.0221941585750756e-05
-2.5933137862921285e-05
-2.431193064467152e-05
-2.424791540533988e-05
-2.6887672504471993e-05
-2.497226751074777e-05
-2.209708804912225e-05
-1.9279313960396394e-05
-1.630002049068935e-05
-1.6614686387583788e-05
-1.4342534313982469e-05
-1.3652408540565375e-05
-1.4006461526605563e-05
-1.1330906261264317e-05
-1.106969904185462e-05
-9.818032879138627e-06
-9.534201467431558e-06
-7.86343514391774e-06
-7.1173489573084225e-06
-1.107879290884739e-05
-1.1252917204274127e-05
-1.087117925635539e-05
-1.2204134577586956e-05
-1.1284698189228948e-05
-1.0574308078048489e-05
-7.947233712002344e-06
-7.693363727412361e-06
-5.418072760221548e-06
-1.8221256823380827e-06
1.0902980989158095e-06
8.042243848649377e-06
1.2725623321330204e-05
1.682469149955068e-05
2.1849340100743575e-05
2.2788616320212896e-05
2.6687950537507277e-05
2.8525644779620052e-05
2.858835216557054e-05
3.3183892242050206e-05
3.669726208954671e-05
4.0888532453209336e-05
4.2563593467548344e-05
4.526254571146637e-05
4.687443032480587e-05
4.5010624489805195e-05
4.6775842577062576e-05
4.527294117906422e-05
4.13394407701162e-05
3.74847622310881e-05
3.0461485039268155e-05
2.5008977786455944e-05
1.2853969792558928e-05
2.4338848447769124e-06
-3.2730833368077583e-06
-1.123379661294166e-05
-1.3435689140806062e-05
-1.5695741126364737e-05
-1.9002201725015766e-05
-1.9462047873730626e-05
-2.0872983157005365e-05
-1.9432997419244202e-05
-2.028529405606605e-05
-2.0563812995533226e-05
-1.9222162279675103e-05
-2.0311273772222194e-05
-1.71751282778132e-05
-1.750741864725569e-05
-1.6186196944545372e-05
-1.3978704828332411e-05
-1.5694757848905283e-05
-1.368616977970305e-05
-1.2786210561444022e-05
-1.1928535911920335e-05
-9.706660478059348e-06
-9.55224345489114e-06
-6.651360592968558e-06
-7.640925844043522e-06
-8.834010145619686e-06
-7.175292239480768e-06
-7.511092633194494e-06
-3.568913768958737e-06
-2.002056760375126e-06
-2.7776137017099245e-06
-2.058341863175883e-06
-3.3738235174496367e-06
-4.4588387027033605e-07
9.930170108418679e-07
-5.48625280316628e-07
-1.7788965465115325e-06
-5.8116474406233465e-06
-6.632376710058452e-06
-7.006166129031044e-06
-5.717876035760128e-06
-3.4991672350770386e-06
-6.484548237040144e-06
-6.16745404613539e-06
-5.7153903298967634e-06
-5.240443385901017e-06
-2.2335749463309185e-06
3.772945547098061e-07
4.478385562833864e-06
4.25776170231984e-06
4.161912556810421e-06
6.292257410223101e-06
6.317177621895098e-06
1.0747041358172282e-05
1.3366822940952261e-05
1.389364473425303e-05
1.5232060547987203e-05
1.000679696971929e-05
8.354317685643764e-06
5.861847512278473e-06
2.145276482679037e-06
4.397801092181908e-06
3.97857729694806e-06
5.010210429645667e-06
5.249661683137674e-06
2.960275196528528e-06
-1.0731330348789925e-06
-1.0263274475619255e-05
-1.3847164780145249e-05
-1.649463121111694e-05
-1.879151756156716e-05
-1.7421256529814855e-05
-2.0622400427328103e-05
-2.1432554603961762e-05
-2.4634905116727168e-05
-2.4882565980988147e-05
-2.24081756527994e-05
-2.5627222100865765e-05
-2.6345498667978973e-05
-2.9521558190026553e-05
-3.734996806770141e-05
-4.1758407178349444e-05
-4.80093772807777e-05
-5.715100957104369e-05
-6.936940764035171e-05
-7.765206032672722e-05
-7.50044458186494e-05
-5.798764442488391e-05
-2.0922112639709667e-05
3.1048056598592666e-05
9.759884676441288e-05
0.00017289649463236856
0.0002359895887593666
0.00026830945296296704
0.00024853356489984435
0.00017707124385424322
7.865949970664587e-05
-1.4232474597974942e-05
-7.263550810421293e-05
-9.810604115045862e-05
-9.592931706947638e-05
-7.88371902444851e-05
-6.286282024348111e-05
-4.60388706642334e-05
-3.406391675753184e-05
-2.774908654146202e-05
-2.1642180570324854e-05
-2.0300566177411383e-05
-1.91182279536406e-05
-2.0526289290501154e-05
-2.188267222891227e-05
-1.8622618938479718e-05
-1.8925127847069234e-05
-1.6906259588722605e-05
-1.5743610049412382e-05
-1.6971799141174415e-05
-1.6725068064715742e-05
-1.901951657146128e-05
-1.7653068596246158e-05
-1.6396109117522428e-05
-1.6242237222741096e-05
-1.2526711884675024e-05
-1.199821070940743e-05
-1.0686000052828604e-05
-9.89788600236352e-06
-9.624524352602748e-06
-8.131142692491267e-06
-9.46625920050792e-06
-7.232210521124216e-06
-4.356424426532612e-06
-2.7306139713800803e-06
1.6083438936220773e-06
2.1424749547804822e-06
2.8347467377898283e-06
3.223485578018881e-06
6.48103412004275e-06
1.3620299512240308e-05
1.6907784413433546e-05
2.159000683832346e-05
2.2523766119775246e-05
2.3137461312217056e-05
2.8407790523488075e-05
3.0680462941745645e-05
3.58409668024251e-05
3.943258644767411e-05
4.066781349365556e-05
4.3555126296723756e-05
4.335972988656067e-05
4.592969582972728e-05
4.47771665790242e-05
4.1837999447125185e-05
3.9390901520164334e-05
3.267671070261713e-05
2.8171441670110653e-05
2.157533532454181e-05
1.5410866467391315e-05
1.0263537888022256e-05
2.0299077618801675e-06
-2.2627440330325044e-06
-9.065596543678112e-06
-1.5725845798897353e-05
-1.841514642819675e-05
-2.0832689358485368e-05
-1.9323348396937945e-05
-2.013482605889294e-05
-1.8718056423949747e-05
-1.656947773653883e-05
-1.9554466405224957e-05
-1.6931973505052156e-05
-1.446710069785695e-05
-1.7362189169034536e-05
-1.7261632308418484e-05
-1.7854282987173065e-05
-1.5277879299446795e-05
-1.3941575105036463e-05
-1.4149135381558153e-05
-1.2330257391113264e-05
-1.5054716755003028e-05
-1.3204907986619219e-05
-9.775406567769096e-06
-8.252124530372384e-06
-4.723098754766397e-06
-5.278446451484342e-06
-3.6069925499759847e-06
-5.077635705674766e-06
-5.866670164778043e-06
-2.8233083071427245e-06
-2.868940725875291e-06
-1.0327170230084448e-06
-1.4614828955927806e-06
-2.660865334291884e-06
-2.4886078904273745e-06
-6.498096183804591e-06
-6.0613232335526845e-06
-4.5107039454705955e-06
-4.120935898299649e-06
-2.0192869101265387e-06
-2.5441300977036008e-06
-2.6654864200281736e-06
-5.184971769267577e-06
-6.248560907806677e-06
-3.8034461340430425e-06
-3.2598791221971624e-06
-1.077907199942274e-06
3.1226232977132895e-07
1.2236276347721287e-06
1.216580869822792e-06
-1.00236280786703e-06
1.521502952073206e-06
2.1438791577566008e-06
4.372686191800312e-06
9.07711859099436e-06
7.626176795838546e-06
7.3031984584304155e-06
5.5960996405701735e-06
5.27292633023535e-06
6.705802661599591e-06
4.157567104812188e-06
5.931012935889157e-06
7.818447897989245e-06
6.5810086198325735e-06
6.5842000935845135e-06
1.8061069226860127e-06
-2.489648238679365e-06
-8.600283365467476e-06
-1.3863043989204016e-05
-1.5369351899607864e-05
-2.041127510210572e-05
-2.199833539862084e-05
-2.2748017897811224e-05
-2.4636691193791194e-05
-2.378580688855436e-05
-2.4350063824840618e-05
-2.3495644143167738e-05
-2.596962349343812e-05
-2.909034617459838e-05
-2.935065458586905e-05
-3.303072816152053e-05
-3.6555526605752675e-05
-4.347113326730323e-05
-5.4976647277271695e-05
-6.549980327008598e-05
-7.507546695251222e-05
-7.318314879967147e-05
-5.4988402837352623e-05
-2.047185074616209e-05
3.0027918171526835e-05
9.290370041981078e-05
0.0001650529661674227
0.0002265370266059108
0.00025902227486085394
0.0002463855927885561
0.00018204013713329914
8.668319742355379e-05
-6.943492735445034e-06
-7.313206083381374e-05
-0.00010300945962171681
-0.0001035334602192961
-8.314113330243345e-05
-6.226753021110198e-05
-4.525381336861756e-05
-3.061373195123451e-05
-2.7350787490831863e-05
-2.6608226733060292e-05
-2.7321268078139838e-05
-2.7098647819912003e-05
-2.1777087624741398e-05
-2.0938966883932153e-05
-1.9352627134594513e-05
-1.7684985095911543e-05
-1.9271686142019462e-05
-1.780731571443539e-05
-1.6446607958187087e-05
-1.414927226051077e-05
-1.433175526699415e-05
-1.4183529572164844e-05
-1.1828998538021551e-05
-1.1740320019271167e-05
-9.79239962362044e-06
-1.0702960821618035e-05
-1.1588298605147429e-05
-1.0803658199165511e-05
-1.2423770044733828e-05
-1.0507569754736323e-05
-1.0176402554407105e-05
-9.5215302167162e-06
-6.902150289533893e-06
-6.9375680595840095e-06
-3.4253445733156695e-06
-5.958256679150509e-07
1.4553331197930675e-06
6.269633445299405e-06
7.016911069968046e-06
1.0000934537401918e-05
1.5136158026507474e-05
1.7666951293904276e-05
2.3670979771850398e-05
2.859085509498982e-05
3.350904501076002e-05
3.594357650626989e-05
3.677562699522241e-05
3.9993672999116825e-05
4.323375105741434e-05
4.633068363091297e-05
4.729160309580038e-05
4.728660007913277e-05
4.5776694832966314e-05
4.153423441266568e-05
4.096636223493988e-05
3.4876911001902045e-05
2.7362108255601925e-05
2.3644997895644337e-05
1.582196352956089e-05
1.007635330552148e-05
2.986250308367744e-06
-2.674180279882421e-06
-6.2055656258053205e-06
-1.2523858970325819e-05
-1.5504075918215676e-05
-1.8670945280518936e-05
-2.2014947091975046e-05
-2.1949037432023033e-05
-2.1230935658422823e-05
-1.8039438486994186e-05
-1.758509438332112e-05
-1.7909511541347456e-05
-1.890499476076002e-05
-2.1270364015890664e-05
-1.8746934358659928e-05
-1.8487809654743614e-05
-1.7939045164894196e-05
-1.4563310173798527e-05
-1.6186096559067664e-05
-1.2716235971765855e-05
-9.130164698945009e-06
-8.381204679608345e-06
-5.710402092518052e-06
-7.576428401989688e-06
-8.421923439527745e-06
-9.523829476165702e-06
-9.570434031047625e-06
-6.309077377864014e-06
-5.229913654147822e-06
-1.6915559513108747e-06
-2.2597248516831314e-07
-2.1038734416833904e-06
-3.1232335118147603e-06
-5.752744812070887e-06
-3.92689395312118e-06
-1.3219067227510095e-06
-1.8291539731762896e-06
-2.2424254098041274e-06
-5.777513933935552e-06
-8.468681585327431e-06
-7.787047877627629e-06
-5.541732718938874e-06
-3.2884972824831493e-06
-2.7199640157959948e-06
1.1003798476849624e-06
1.6541642935408163e-06
6.580619924534403e-07
4.748561423184583e-06
5.086388341624115e-06
5.677436035966821e-06
9.298810880409292e-06
1.0907291652983986e-05
1.1029698896436457e-05
8.146417883381218e-06
7.911309694463853e-06
9.308535197760648e-06
1.0064530670206295e-05
1.4052438245926169e-05
1.3994132132211234e-05
1.3442552415199316e-05
9.848562399383809e-06
3.976342782152642e-06
-2.166279955417849e-08
-7.242523793138389e-06
-1.1763507188788935e-05
-1.5383920583644795e-05
-1.9770041888023115e-05
-1.9171238250237366e-05
-1.9732811608719203e-05
-1.775005881654579e-05
-1.5542379628641356e-05
-1.799438388161434e-05
-1.838896298522741e-05
-2.176713729795665e-05
-2.3972118810888787e-05
-2.432612660641098e-05
-2.6501957904656592e-05
-2.6990566652784764e-05
-3.1904674813176825e-05
-3.72959489141067e-05
-4.409480396816434e-05
-5.585162710985969e-05
-6.562573872770372e-05
-7.236613532768388e-05
-6.528524835403005e-05
-4.431228558132716e-05
-5.556863243327825e-06
5.332528132839798e-05
0.00012192435599445162
0.00019127415600905806
0.00023810741652141587
0.00024170501018261348
0.00019630453368790768
0.00010782055801428214
1.1532944995451544e-05
-6.540944741573185e-05
-0.00010772373030931703
-0.00011128674191240862
-9.453777886392345e-05
-7.0108303930283e-05
-4.9697983627083886e-05
-3.550239125615917e-05
-2.5313684034244943e-05
-2.2072103263326426e-05
-1.816039065261066e-05
-1.4850256093268399e-05
-1.617411078314035e-05
-1.675009707469144e-05
-1.8232378749871714e-05
-1.714947831032987e-05
-1.7166909287880117e-05
-1.5975332814832655e-05
-1.3248245750219212e-05
-1.4395043251624884e-05
-1.230543483643487e-05
-1.1478687895305484e-05
-1.2768677606800338e-05
-1.1068057744978432e-05
-1.2955489523847064e-05
-1.2795113377706002e-05
-1.284760168118737e-05
-1.2334750863374211e-05
-7.445434334840684e-06
-5.014893588395353e-06
-1.6480596514156787e-06
-2.199231516897271e-06
-4.751217034026922e-06
-3.1068139492163027e-06
-4.989602302885032e-06
-2.462317809204251e-06
3.447533060807473e-06
3.5636634834190772e-06
6.435697969209286e-06
8.098123430499982e-06
1.1233725615511503e-05
1.5422398462305864e-05
1.9369277936220897e-05
2.6862488027745712e-05
3.0496640249566553e-05
3.3545041219440463e-05
3.842749595150963e-05
3.9596191868440656e-05
4.417552958102533e-05
4.740227046795553e-05
5.066334085768176e-05
5.118038455975693e-05
4.9061549020734674e-05
4.8811981059770915e-05
4.29696866035556e-05
3.555717995595842e-05
2.6908852191809274e-05
1.8408473351883003e-05
1.376973102651391e-05
7.160443715292786e-06
3.848235110126552e-06
8.279750431938737e-07
-5.905597674882301e-06
-9.554714836212952e-06
-1.4612390373258677e-05
-1.761783340725742e-05
-2.059118480701727e-05
-2.2529416980887618e-05
-2.0329800747731497e-05
-2.1551150496179616e-05
-2.0957994877335295e-05
-1.8946197712921276e-05
-2.005545638894546e-05
-2.0580328452979302e-05
-2.3699447694980336e-05
-2.508449716742689e-05
-2.4441912103156938e-05
-2.218324533487248e-05
-1.4096536688157357e-05
-8.473202740333363e-06
-5.736277444157167e-06
-5.9860920487153635e-06
-7.396464241082867e-06
-5.995898845867487e-06
-5.74690358234875e-06
-3.106603458036261e-06
-9.016403623718361e-07
-3.859190769617271e-06
-5.481471191615128e-06
-5.709318941171659e-06
-3.0097205012680206e-06
-1.5132526982597483e-06
-6.475313512055436e-07
-2.1857397314306581e-07
-3.7590380088659003e-06
-4.405268896334746e-06
-3.027219520390645e-06
-2.373786344378459e-06
-5.766841582044435e-07
-1.26216480111907e-06
-1.3811285271003726e-06
-2.292991325703042e-07
1.843561108216818e-07
3.6942156498298573e-06
3.3423157788092794e-06
7.176001872721827e-07
-1.2673638707383361e-06
-2.65182552539045e-06
-1.8966716197610367e-08
2.6617387334226805e-06
8.357510296264081e-06
1.1797986132933147e-05
9.789633736545511e-06
8.413484749780764e-06
4.789066167631972e-06
4.88125886022317e-06
6.01359050733663e-06
6.924398064711568e-06
9.836628123593982e-06
8.348054620910261e-06
6.951731165827368e-06
2.446774317377276e-06
-5.47206531109623e-06
-9.610229142253957e-06
-1.6455629918255e-05
-1.8724879737419542e-05
-2.0318854694778565e-05
-2.4075414955859742e-05
-2.2972255408149067e-05
-2.189115082273929e-05
-2.0115389588681865e-05
-1.944232690220815e-05
-2.0133348357376235e-05
-2.162328632948629e-05
-2.706954751374724e-05
-2.872725326596992e-05
-2.990403856983903e-05
-3.4973129345416964e-05
-4.066923452228366e-05
-5.176620538804855e-05
-6.275230742858184e-05
-7.356877915754012e-05
-7.509376808911838e-05
-5.436577396267239e-05
-1.6489416736931162e-05
4.1356751978582906e-05
0.0001140876536851465
0.0001869057348926617
0.00024635306402842616
0.0002608670545214409
0.00022406660644946896
0.00014095994441731818
3.0449882160610287e-05
-5.724372351778584e-05
-0.00010819876644063697
-0.0001216990884245206
-0.00010496349153754636
-7.877460416239046e-05
-5.269555936138204e-05
-3.701741417216908e-05
-2.645342829055153e-05
-1.9626614573553525e-05
-1.9622461138624203e-05
-1.8224437951630534e-05
-1.7843329260358587e-05
-1.5416771475429414e-05
-1.4643849056028557e-05
-1.3259994545933296e-05
-9.813075735110033e-06
-1.0420315675219172e-05
-9.727937026582367e-06
-9.490166235082143e-06
-1.2016679704629496e-05
-1.211222775054921e-05
-1.4076123875383928e-05
-1.3790636387511768e-05
-1.2903096830996219e-05
-1.4147067020076065e-05
-1.1549392809229175e-05
-1.1311301761907089e-05
-1.0677288742044766e-05
-1.0929494862921274e-05
-1.102170756439591e-05
-8.596950806349923e-06
-9.995824029829237e-06
-6.248630427307944e-06
-1.248314163149189e-06
-1.5580169474560535e-06
7.670852255614591e-07
1.4222853224055143e-06
2.516259542062471e-06
6.698325648812897e-06
1.257456779057975e-05
1.9604386636729032e-05
2.3418051853241195e-05
2.9098196478116733e-05
3.354532515231767e-05
3.6360957778924785e-05
4.1506833724724856e-05
4.2137708874179225e-05
4.365115677273934e-05
4.5730820545486495e-05
4.4199021829172125e-05
4.649477818929881e-05
4.6713017127331113e-05
4.5651119989997824e-05
4.6082256289992074e-05
4.3883932278276916e-05
4.015260543610566e-05
3.0544080630079407e-05
2.066922638732649e-05
1.2056068555921229e-05
8.385248406739265e-07
-3.2136289860318357e-06
-5.7344249739799125e-06
-8.090854009878967e-06
-1.0889302473060525e-05
-1.6705063956123922e-05
-1.85610705898398e-05
-2.04753320645068e-05
-1.998063868313693e-05
-1.8686274131596292e-05
-2.095474371799355e-05
-2.1002919652346463e-05
-2.374069475763463e-05
-2.3110083873234544e-05
-2.18680356169898e-05
-2.174041793523429e-05
-1.6507252780684212e-05
-1.3599389092178171e-05
-1.1192802105597366e-05
-1.0247183524825232e-05
-1.0878183616114256e-05
-9.822584331686812e-06
-1.0121781201632984e-05
-7.5167607178627804e-06
-4.794894493898028e-06
-5.644937914439652e-06
-4.768429505475069e-06
-6.317521865639719e-06
-5.2295287105152966e-06
-4.416894284986483e-06
-5.8472521686780965e-06
-4.680567201376107e-06
-7.971833952069574e-06
-9.524539052563341e-06
-8.61600898360848e-06
-8.35478743965723e-06
-3.3622791306697764e-06
-2.2177186451699527e-06
-1.9034825982089387e-07
1.7625606005822192e-06
-4.376694278107607e-07
1.8011573388321267e-06
2.527072297198174e-06
1.7042609101736161e-06
2.133121824954287e-06
2.2772381385038898e-06
6.9375349767142325e-06
9.18066291433206e-06
1.1630327549028152e-05
1.5796277693880256e-05
1.4324794904041482e-05
1.4407266689886455e-05
1.2578173766542022e-05
1.027526326424777e-05
7.246291204410227e-06
3.2317619229615957e-06
1.9900979850717704e-06
9.309044912697573e-07
-6.353211574605666e-07
-3.481709995867277e-06
-8.840777070417971e-06
-1.2657297361329256e-05
-1.8166028155519598e-05
-1.850556850513385e-05
-1.71465058542708e-05
-1.7318095331120276e-05
-1.3651224605837342e-05
-1.5758490860662278e-05
-1.9282231335182587e-05
-2.2030072102552367e-05
-2.4964913848180004e-05
-2.4790324744117243e-05
-2.6854524321606732e-05
-2.8828928122948128e-05
-3.1325163320161664e-05
-4.005341872925783e-05
-5.174594980417169e-05
-6.637984375856831e-05
-7.57456911060217e-05
-7.738064533668876e-05
-6.596370030820253e-05
-3.139238503990782e-05
1.8457570774899068e-05
8.384562130459017e-05
0.00016240919319443492
0.00022987994537970735
0.00026189692232492234
0.00024067441728448102
0.0001723596838019148
7.303034482220028e-05
-2.1097362605360104e-05
-7.913553213256819e-05
-0.00010450491078017876
-0.00010184003389213103
-8.456821740310261e-05
-6.588782247263225e-05
-4.792028795463921e-05
-3.6188560670780134e-05
-2.7334682840773894e-05
-1.8744542046533752e-05
-1.461767840282846e-05
-1.2654464171646396e-05
-1.2525405338692508e-05
-1.1854254182708246e-05
-1.3765188100478554e-05
-1.6602300888735044e-05
-1.412309126180844e-05
-1.3292272285525542e-05
-1.2851268309077568e-05
-9.661988485731854e-06
-1.0357217547607434e-05
-1.1225179889606807e-05
-1.3721712718961498e-05
-1.3066051906207576e-05
-1.1677142595090118e-05
-1.3950848654076253e-05
-1.1939926594095596e-05
-1.1459651034329e-05
-1.1268064838532155e-05
-9.105279332288774e-06
-8.351520364158205e-06
-6.895482499658101e-06
-8.104219830329384e-06
-4.710856501333183e-06
7.798052479301987e-07
1.0106482477567624e-06
4.926227859414212e-06
6.043249868525891e-06
8.148885456193966e-06
1.2339336763034225e-05
1.634657320437327e-05
2.283226780264158e-05
2.5648243024534167e-05
2.974621224893781e-05
3.45663348753078e-05
3.614765790871388e-05
4.0175952449317265e-05
4.084573339468989e-05
4.1689659610710805e-05
4.129725556367703e-05
3.8804773907941126e-05
4.05926608664231e-05
4.074475822335444e-05
3.949535437186569e-05
3.875852331702845e-05
3.617932571842175e-05
3.0765534631882474e-05
2.1766246049992333e-05
1.3955636859463993e-05
5.672399709055753e-06
-2.8177261128803366e-06
-6.744323286511644e-06
-1.0201663883435685e-05
-1.1764578857764718e-05
-1.435966623830609e-05
-1.749575255871605e-05
-1.7500358978850272e-05
-2.134028073896843e-05
-2.297720516253321e-05
-2.390229144566547e-05
-2.7088319768608926e-05
-2.3262469255769247e-05
-2.1579337897037476e-05
-1.9341925451499264e-05
-1.615010091882141e-05
-1.7608436337468447e-05
-1.6589406129696727e-05
-1.522365738537701e-05
-1.3433871288270893e-05
-1.195408242438134e-05
-1.0551068442055112e-05
-5.314506609011005e-06
-4.932159242798662e-06
-4.4209878637957445e-06
-1.347006048035837e-06
-2.7637727839646686e-06
-2.0797846786990704e-06
-2.6607521022015135e-06
-2.605840563774109e-06
-7.059814493004524e-06
-1.2411380851062859e-05
-1.0373764496307558e-05
-8.71843968752728e-06
-4.487850389978121e-06
-1.1540985838109918e-06
-3.2446990303469647e-06
-4.639524718186294e-06
-7.585508171814581e-06
-5.296348433603271e-06
-1.2825321391574107e-06
2.3131804027798353e-08
4.580019265176816e-06
6.144226347259973e-06
3.966947417666233e-06
3.977670758104068e-06
7.008079364823061e-06
1.1491003704122704e-05
1.3099692523610429e-05
1.4784059942485328e-05
1.4666431638943322e-05
9.769308121576614e-06
9.04789334299494e-06
9.021577000112302e-06
1.030370611942999e-05
9.849324101196544e-06
7.667254692478309e-06
6.08650998401572e-06
-2.2034052449271258e-06
-9.070303178759787e-06
-1.3017452999974921e-05
-1.7278890027228044e-05
-1.6699825948762737e-05
-1.7005200220410188e-05
-1.7279908547607192e-05
-1.7907168398778595e-05
-2.1688364256533532e-05
-2.053053287909279e-05
-2.123667957221187e-05
-2.2586186560147326e-05
-2.165259490993776e-05
-2.5010672175085347e-05
-2.7876959450168215e-05
-3.308255452338926e-05
-3.848056275046474e-05
-4.4103831442043884e-05
-5.640907522774796e-05
-6.795029730710667e-05
-7.733492287798072e-05
-7.656534268107862e-05
-6.07473654667956e-05
-2.841777029516379e-05
2.314493525545913e-05
8.58459873143147e-05
0.00015899514005468518
0.000228238789588886
0.00026389151827288515
0.0002534589144147503
0.0001891912909286475
9.11688310907266e-05
-3.6479789287113817e-06
-7.16138419534218e-05
-9.984194701928573e-05
-9.902868555400346e-05
-8.244920201150308e-05
-6.135967828413413e-05
-4.429989905929688e-05
-3.058912494680044e-05
-2.6335418681355804e-05
-2.4791836494841846e-05
-2.2732610261755326e-05
-2.4688844916909147e-05
-2.4330635540081857e-05
-2.4853451066064736e-05
-2.3377466334295605e-05
-2.099111299003198e-05
-2.0126235256157088e-05
-1.5948031148127484e-05
-1.4133819206563203e-05
-1.316465318268456e-05
-1.1709535669979232e-05
-1.2478346320676792e-05
-1.2361284404960315e-05
-1.344671017022847e-05
-1.0647728743151674e-05
-7.606153246797476e-06
-8.28605487868117e-06
-5.98276949403953e-06
-8.104220228233316e-06
-9.082066014798329e-06
-7.107399540018378e-06
-7.668583577924437e-06
-4.97419040357272e-06
-6.454517063048115e-06
-7.951422446694778e-06
-4.8448179086335585e-06
-2.9305912789823196e-06
2.8231572741788113e-06
9.286113595408096e-06
1.6491951839725516e-05
2.1346942332911567e-05
2.3237608047566027e-05
2.852512199069679e-05
3.0566480347715697e-05
3.1459080560125585e-05
3.516567591077546e-05
3.5360505592052505e-05
3.80213543849095e-05
3.915901004347688e-05
4.14369595205244e-05
4.392400018105036e-05
4.211281105881426e-05
4.3266219336146605e-05
3.9814629417378455e-05
3.4169520802151965e-05
2.986462970966386e-05
2.369763512888312e-05
2.0414432469806343e-05
1.441380811684212e-05
7.950558995162282e-06
2.7349026368028717e-06
-4.868214716680086e-06
-8.772010062330082e-06
-1.2300752757710143e-05
-1.5043033215533796e-05
-1.6330950472820405e-05
-2.0007325929327635e-05
-2.0258057872979407e-05
-2.2047572031169693e-05
-2.3851959554122004e-05
-2.4403528811944852e-05
-2.5417668837235396e-05
-2.2078724327911914e-05
-2.10874880508527e-05
-1.7338499162633525e-05
-1.2112344222714455e-05
-1.0901072414526425e-05
-5.783940991932468e-06
-5.467289838634315e-06
-7.693130612551613e-06
-8.086677041774237e-06
-9.983479742459167e-06
-7.68689801589062e-06
-7.255570437791903e-06
-7.373144114808383e-06
-5.254751727079565e-06
-6.1004208760095935e-06
-5.883887354229955e-06
-6.031698660535767e-06
-5.802809880606219e-06
-7.073566109738749e-06
-1.0609717890019965e-05
-9.09201111198854e-06
-9.133338949141034e-06
-9.857543091129628e-06
-7.410676232666447e-06
-7.0743913624937704e-06
-4.2996442743969965e-06
-1.964898615369748e-06
1.6360359040845651e-06
4.864042296048865e-06
3.340492185088806e-06
4.644946557164076e-06
5.552358516069944e-06
5.555722623284964e-06
7.863245400585583e-06
8.650963025047531e-06
1.0110098912718968e-05
8.709384303529077e-06
9.386997135152342e-06
9.884396888537594e-06
8.075296989318304e-06
1.0225592347978818e-05
9.817460863814631e-06
1.0468255482010136e-05
1.0889872953612212e-05
3.47434939840241e-06
-1.6437648469036503e-06
-5.6388579423583e-06
-1.1754312197354011e-05
-1.4358650105350534e-05
-1.8937439278943202e-05
-2.153993574438573e-05
-2.2141587692203757e-05
-2.0057472795542708e-05
-1.8240474787489802e-05
-1.9818713838049007e-05
-2.130485364659762e-05
-2.3757449639560946e-05
-2.4006501007534098e-05
-2.339786340144201e-05
-2.5339557168990723e-05
-2.564305805208278e-05
-3.111483891871103e-05
-3.957717058256094e-05
-4.742464227547316e-05
-6.124432269416502e-05
-7.436402921712215e-05
-8.266829246394991e-05
-7.666263229566539e-05
-4.954605191187511e-05
-4.851223934565496e-06
5.960070348010049e-05
0.0001344977605413078
0.0002054965568163425
0.0002553061974595039
0.00026019507924956997
0.00021633800628251265
0.00012846665333654528
3.0864847133216244e-05
-4.328253538687932e-05
-8.615980971171666e-05
-9.228422521800894e-05
-7.933635322388e-05
-6.184088687177791e-05
-4.4841128499228944e-05
-3.610824404631785e-05
-3.0369836281352036e-05
-2.929298307208228e-05
-2.9556605852576467e-05
-2.572895385810625e-05
-2.5690981203752017e-05
-2.4057137522959238e-05
-2.2367198539541278e-05
-1.9703146563188056e-05
-1.8058711077628686e-05
-1.9842420556415163e-05
-1.6590442101005465e-05
-1.613292346291928e-05
-1.655684144452607e-05
-1.3807147468014591e-05
-1.636412332572945e-05
-1.6140291222654923e-05
-1.6098408877951442e-05
-1.4017961575518711e-05
-9.84299276751699e-06
-9.332164609077154e-06
-6.1375031350507925e-06
-6.189633552367013e-06
-8.655742760765861e-06
-8.255530701717362e-06
-9.330115062766708e-06
-6.145291138182074e-06
-4.343401599271601e-06
-2.6782482791531947e-06
3.074470384945016e-06
5.867878485332767e-06
9.968270205718e-06
1.2822762755604344e-05
1.6321041869105102e-05
1.9530863653471897e-05
2.1170467277897842e-05
2.7582684936078294e-05
3.230716907864917e-05
3.428104673730559e-05
3.857999047340854e-05
3.959756668336922e-05
4.2378935404485674e-05
4.382542255143562e-05
4.503309685333079e-05
4.617370774440133e-05
4.2776018233325885e-05
4.0802386024552106e-05
3.653212411336426e-05
3.080368691144031e-05
2.7499507893935515e-05
2.084637321786431e-05
1.5138628384647745e-05
6.821490615038783e-06
-2.5911880925377773e-06
-6.186662346863159e-06
-1.0863642216918379e-05
-1.3968353755444696e-05
-1.621631651005373e-05
-1.907979435600282e-05
-2.1801525690534618e-05
-2.4328112829152815e-05
-2.1076989241919364e-05
-2.010287840903402e-05
-2.0336723537184298e-05
-1.5873715938141686e-05
-1.721071754445802e-05
-1.6474802578159142e-05
-1.4143222699658509e-05
-1.4475792170287605e-05
-1.3168692760245904e-05
-1.4269755808982154e-05
-1.3095255951611762e-05
-1.134595987650755e-05
-1.0613093650135852e-05
-9.299722989908332e-06
-1.108543187910982e-05
-1.0739126423686685e-05
-1.0795707169108937e-05
-9.122397273131355e-06
-3.44225298931633e-06
-3.453666010955203e-06
-4.105525761133322e-06
-4.692488346336177e-06
-3.574937693429092e-06
-2.0764937858075427e-06
-1.948039368926402e-06
1.196034816075553e-06
2.23476592964289e-06
6.55914050184947e-07
-1.0299322639184538e-07
-3.694026304401632e-06
-7.182304955222207e-06
-7.95969498312843e-06
-3.5398689419707807e-06
1.4032931403562543e-06
1.7987014757636643e-06
3.0127089871712087e-06
1.9882486981259717e-06
-1.2584312685248733e-06
-3.8727949913663906e-07
7.810508577676956e-07
4.4121455857748515e-06
7.01296590932543e-06
1.0743891095899016e-05
1.4334607897126261e-05
9.681159326646593e-06
7.542385503711557e-06
5.903808244056563e-06
5.746043768795062e-06
8.318794584738498e-06
5.792685669803177e-06
6.64676338146819e-06
7.1016095262166345e-06
4.8827769774106855e-06
3.853399334730057e-06
-3.1295454618884833e-06
-1.0007795481214998e-05
-1.6359801350063208e-05
-1.950200703504379e-05
-1.767801893493015e-05
-1.9284635129679373e-05
-1.9422908394517435e-05
-2.0381995000207098e-05
-2.2901604950220644e-05
-2.3026675648907258e-05
-2.576720328306692e-05
-2.753628456275692e-05
-3.3047858892132354e-05
-3.669906692493896e-05
-3.6453084476306685e-05
-3.880058039840151e-05
-4.219212650014015e-05
-5.2764683744044305e-05
-6.480918199258667e-05
-7.613873714262809e-05
-8.111468719107506e-05
-6.220652551292005e-05
-2.525752643123269e-05
3.2114433679453214e-05
0.00010959113569697365
0.0001868082342184607
0.00024879084236317794
0.00026648974221643584
0.00023197549000997242
0.0001544837357414508
5.185063781709687e-05
-3.255605707863651e-05
-8.156263635328287e-05
-9.852071781324412e-05
-8.7793570685335e-05
-6.939222072332996e-05
-5.0636566299999686e-05
-3.919203862778886e-05
-3.2535587251913967e-05
-2.5750860970674694e-05
-2.4756836012329586e-05
-2.3143265650560352e-05
-2.153169208440886e-05
-1.9208987794172572e-05
-1.701001133369573e-05
-1.8591053958516568e-05
-1.6981916871827707e-05
-1.7005750862608693e-05
-1.804981906161629e-05
-1.6950205122157058e-05
-1.6999744673285022e-05
-1.5482051139770192e-05
-1.6741995693791978e-05
-1.5064893943872448e-05
-1.155023983301362e-05
-1.0790383782932622e-05
-7.936063298075169e-06
-6.99375868862262e-06
-7.367093985521933e-06
-7.624738259437436e-06
-1.020878858071228e-05
-8.04875890025869e-06
-8.961124365214346e-06
-9.923785398768814e-06
-5.516145165529451e-06
-5.658279121689702e-06
-3.0946672495701932e-06
3.652527880149137e-07
4.279013467112236e-06
9.905277579491667e-06
1.2140343699229561e-05
1.6669041087880032e-05
2.1954389865186386e-05
2.436377468484352e-05
2.8822664944527787e-05
3.087326649620081e-05
3.447566797376567e-05
3.780149131671351e-05
4.2554719982490496e-05
4.877286676219228e-05
4.859354186237397e-05
4.938379652230651e-05
4.778210632139235e-05
4.3441548939426866e-05
4.2559442476886034e-05
3.7109343111296766e-05
3.161571123655449e-05
2.4247281089628814e-05
1.493309321176639e-05
1.0110491757586715e-05
2.6865581048696185e-06
-3.42974504974336e-06
-9.352872780254984e-06
-1.4446659179156995e-05
-1.5746644805858523e-05
-1.9233449734201713e-05
-1.9110824325707654e-05
-1.8604709680403175e-05
-2.0793807323116198e-05
-1.7887016213080642e-05
-1.7047937888037268e-05
-1.6245770495970646e-05
-1.7218160735410493e-05
-1.9890893838692136e-05
-2.0008374804092455e-05
-2.2364218125403568e-05
-2.111526521275664e-05
-1.931881985228756e-05
-1.9123088748074224e-05
-1.643577292043119e-05
-1.4660616727724118e-05
-9.276448508899193e-06
-6.767526883777464e-06
-5.275529360915243e-06
-2.199578943873348e-06
-5.728596363496763e-06
-6.617142560116918e-06
-6.030884492247424e-06
-3.8014304095668194e-06
-2.55860754805326e-07
-2.206783676683699e-06
-3.212699823507137e-06
-5.802615362426877e-06
-9.989418572331488e-06
-9.337998051250906e-06
-8.316963317156478e-06
-4.710830125986831e-06
-2.0787897483387496e-06
-6.986056177993305e-07
-2.2653387077298248e-07
-4.176889092377678e-06
-5.916280997553258e-06
-6.6650968051362725e-06
-5.958569431641081e-06
-1.5206981061055558e-06
5.498136488313321e-07
4.440817349404824e-06
2.56835113532361e-06
2.3334634420280054e-06
7.882321881425014e-06
8.881863266196888e-06
1.2289670166865108e-05
1.2291134908082313e-05
9.613092288418557e-06
1.0342904715798795e-05
8.181919156413642e-06
9.846293892223912e-06
1.1247499799083016e-05
8.433378866357089e-06
6.7789592321787495e-06
2.054206674984016e-06
-3.164349550388579e-06
-8.98979453722859e-06
-1.1394404907605349e-05
-1.0962645717427222e-05
-1.2770519902005617e-05
-1.3719964954361785e-05
-1.468606416210605e-05
-1.752616975636556e-05
-1.758183509537048e-05
-1.886284439933661e-05
-1.9090881551164784e-05
-2.098679328810249e-05
-2.46534526695541e-05
-2.3787874056324654e-05
-2.4504411555881234e-05
-2.4837638022745523e-05
-2.8483071787377412e-05
-3.4685681328028295e-05
-4.3268434296805935e-05
-5.873736103012561e-05
-6.798452318435011e-05
-7.054212136381466e-05
-6.484502699777295e-05
-3.725133365151123e-05
6.394191586878151e-06
6.840381979600352e-05
0.0001399208267685026
0.00020741159693216105
0.0002506895531837472
0.0002419475280817096
0.00018540698374636122
9.181017469472863e-05
-8.596684267558885e-06
-7.835161073899144e-05
-0.00011146822441787663
-0.0001104782973015972
-9.167458733827516e-05
-6.800698031383945e-05
-4.615434102106519e-05
-3.521244241255772e-05
-2.8982630567497836e-05
-2.634744333818162e-05
-2.491896350420575e-05
-1.9851310696594737e-05
-1.898910329600767e-05
-1.64409718195202e-05
-1.4328784175177134e-05
-1.6889481400994555e-05
-1.5738943375254166e-05
-1.5874107589297637e-05
-1.5300587961064593e-05
-1.4333116951092961e-05
-1.300330649200987e-05
-1.1185660753199045e-05
-1.2472062337565148e-05
-1.1602963468249072e-05
-1.2255838441888045e-05
-1.3863781987311086e-05
-1.2832249922212213e-05
-1.2678456755566003e-05
-7.073149163261405e-06
-2.927744276348676e-06
-2.9738495186393266e-06
-1.660767566136201e-06
-4.896336690762837e-06
-5.6110908985829155e-06
-4.771786223045638e-06
-1.2004713880742202e-06
3.7499322615985875e-06
3.6044264675183513e-06
7.744336016912712e-06
1.2318431515723205e-05
1.4587865791781951e-05
2.0540126058676833e-05
2.5525696571548906e-05
3.0645036304122186e-05
3.251685228633505e-05
3.5204365644858626e-05
3.9055513013863674e-05
4.054113242091262e-05
4.394549836206352e-05
4.6736372325995035e-05
4.8009170882323815e-05
4.9413014153287804e-05
4.645751317866598e-05
4.546865761767549e-05
4.126705908902295e-05
3.3517472559196904e-05
2.8698524715764506e-05
1.8660850344076607e-05
7.315595155432675e-06
4.171823206888803e-07
-3.5022151223529363e-06
-5.996228196636366e-06
-1.1306257817977894e-05
-1.393277921124536e-05
-1.6225446472617477e-05
-2.1561479911724746e-05
-2.1480904024429037e-05
-2.3054410121403635e-05
-2.3880136950538144e-05
-2.274668980817296e-05
-2.19899893636466e-05
-1.8935721016077878e-05
-2.0750055909957155e-05
-1.9835445243643335e-05
-1.7512449119294615e-05
-1.6606108090400085e-05
-1.3321051710590837e-05
-1.4035738672646403e-05
-1.2920882738853834e-05
-1.2805406129245966e-05
-1.1847052803659608e-05
-5.793256548258796e-06
-4.975965453013487e-06
-5.007709773963143e-06
-5.977335263196437e-06
-7.681289332595043e-06
-6.458752068283502e-06
-7.828133561815775e-06
-5.9974177020194475e-06
-3.4216300264233723e-06
-5.242742190603167e-06
-3.575646246645192e-06
-4.842736245791457e-06
-6.945662050839019e-06
-8.276424409814354e-06
-9.073381590951612e-06
-6.563967986039643e-06
-7.090657447861304e-06
-4.511315012223349e-06
-3.3088737154685077e-06
-4.08822620556748e-06
-1.953907826646173e-07
2.403161659003672e-06
7.035855105641531e-06
1.031183796840196e-05
8.61535187368645e-06
9.827464566569688e-06
7.310315425002045e-06
4.7107606064855645e-06
6.032517546827876e-06
6.474485076068959e-06
7.453498426457372e-06
5.8566910752233525e-06
8.046288087371067e-06
1.0926761888185865e-05
9.815801604418084e-06
1.1700224206379062e-05
1.0217106648724439e-05
7.934742711768195e-06
7.356181299655873e-06
5.699011126125697e-06
3.036569410141965e-06
-3.119987809441227e-06
-9.991458910008078e-06
-1.354209871351486e-05
-1.6210721071274747e-05
-1.7868376062324387e-05
-2.0339212483122537e-05
-2.1718706477713567e-05
-2.5074431505345274e-05
-2.8336276102436386e-05
-2.4994721911753004e-05
-2.4366784771245875e-05
-2.3654380186144408e-05
-2.4360068550777214e-05
-2.5537470094150194e-05
-2.8293817535995913e-05
-3.843081043441998e-05
-4.725222515844507e-05
-5.7499107242620084e-05
-6.847587860647764e-05
-6.982632419294532e-05
-6.211047559645522e-05
-3.536488344479949e-05
8.178541406778095e-06
6.83128184277848e-05
0.00014400618442778068
0.0002122516547728992
0.00025404464702205587
0.0002486574753675086
0.00019194481961903875
9.905826061640255e-05
-2.714491643018846e-06
-7.481041745904804e-05
-0.00011137034397279422
-0.00011654437076913382
-9.511662176464597e-05
-6.895047653188158e-05
-4.700774644561534e-05
-3.046516269478161e-05
-2.252472290820151e-05
-2.1195108104166138e-05
-2.348579772615267e-05
-2.3567075118080538e-05
-2.140866200761593e-05
-2.03694984293179e-05
-1.8537551909503236e-05
-1.8272845863975817e-05
-1.6749116241498996e-05
-1.6992843484331388e-05
-1.7243552292711684e-05
-1.2855140084866434e-05
-1.2103225458304223e-05
-1.0026468146406842e-05
-6.530689745432028e-06
-7.492013480714377e-06
-8.348140340785903e-06
-1.0535381306908675e-05
-9.488549721936579e-06
-9.544694762553263e-06
-1.0358359304518672e-05
-7.0715187803216395e-06
-8.754998248150514e-06
-8.434361006948166e-06
-6.986185326240957e-06
-3.780543465836672e-06
1.5738062870696012e-06
1.5676738485126407e-06
4.427041460530745e-06
8.232289701481932e-06
7.394586589271057e-06
1.142732207881636e-05
1.5083650680480787e-05
1.8315603085738985e-05
2.2011752889739e-05
2.5930053141109966e-05
3.0304945539683104e-05
3.310389212174414e-05
3.932696353103893e-05
4.490849937610619e-05
4.804194071539314e-05
5.1238708181244874e-05
4.77000393743765e-05
4.6569574294608174e-05
4.453584875818706e-05
3.9427163869731885e-05
3.898764805398969e-05
3.3591826024803595e-05
2.7462702234970493e-05
2.271992951818902e-05
1.6734143457597384e-05
9.879864933282079e-06
4.385935881145997e-08
-5.5223426898010075e-06
-9.272415752548113e-06
-1.3129768774433614e-05
-1.3680355607448291e-05
-1.7574705850620376e-05
-1.9311296512114495e-05
-2.0876667747415922e-05
-2.0855662683061382e-05
-1.683774837601959e-05
-1.7077537449949887e-05
-1.6951434702150436e-05
-1.63134843660373e-05
-1.8055822408769018e-05
-1.851721032153364e-05
-1.8474491412234784e-05
-1.640945669123539e-05
-1.5012629603461392e-05
-1.3989283502269245e-05
-8.671174384744518e-06
-9.049904519997654e-06
-1.0472033352471044e-05
-1.1056391485908534e-05
-1.2958380636973743e-05
-9.070647877251758e-06
-6.37678920156759e-06
-3.835972052002035e-06
-1.1136721695947926e-06
-3.5159159210707003e-06
-3.116374841738434e-06
-2.3924267793518084e-06
-1.3144083936822426e-06
-1.838767502704286e-06
-4.420009418026893e-06
-4.523582447291119e-06
-6.064726562726719e-06
-5.176871297862817e-06
-2.923373870089563e-06
-2.8237362812433275e-06
-5.098528959024407e-07
9.70609505657194e-07
3.7289496503944974e-06
5.189349224110629e-06
3.752066220386041e-06
5.2546837991940265e-06
2.8460058274504263e-06
1.0420536113997514e-06
2.025471815159108e-06
3.3311387142020976e-06
7.430142545672425e-06
7.096701153841423e-06
9.969935490516946e-06
1.0669274274732743e-05
7.575124982395209e-06
8.287388311600807e-06
5.907677348204743e-06
6.249651789858035e-06
7.499090997953317e-06
3.7748905015178025e-06
4.217072273604572e-06
2.3335854280048807e-06
-1.1692649195538252e-06
-4.857704027472209e-06
-1.0445017380789068e-05
-1.5786394101269252e-05
-2.2365300935689447e-05
-2.212486469943542e-05
-2.1402104607659567e-05
-2.464724980200117e-05
-2.2322449183320714e-05
-2.3975986664481752e-05
-2.8283175765864144e-05
-2.870790729048167e-05
-3.069065974159457e-05
-2.9813567721248546e-05
-3.0913151363165525e-05
-3.341957136626661e-05
-3.899839089172019e-05
-5.0523712559424894e-05
-5.96571487676556e-05
-6.85989859334768e-05
-7.073992793493744e-05
-6.215839169954052e-05
-3.844136250563679e-05
6.607094519495149e-06
6.574125120550889e-05
0.00014002713885474805
0.0002134003387368466
0.0002553540774670182
0.00025345429367007455
0.0001976805258436798
0.00010512697150488748
8.295957343307236e-06
-6.284307045234527e-05
-9.524764141133346e-05
-9.990980447582842e-05
-8.619300507461958e-05
-6.667463480880542e-05
-5.006819867503509e-05
-3.6005902529723244e-05
-2.928355633002866e-05
-2.448033694690821e-05
-2.011456547279522e-05
-1.9994737101569626e-05
-1.8036339781701827e-05
-1.703210915593445e-05
-1.5741885079023632e-05
-1.5206052410121629e-05
-1.59196941922346e-05
-1.5224108778966183e-05
-1.6102211475299555e-05
-1.479526940784126e-05
-1.2768358885750786e-05
-1.1966972408572474e-05
-1.1569382536436024e-05
-1.3541120324589428e-05
-1.1025726507796207e-05
-9.20474820986783e-06
-1.0077579986500496e-05
-7.514650292250735e-06
-1.02555739545096e-05
-1.1055082723032683e-05
-7.603233598274528e-06
-6.455270352034859e-06
-4.143999660755071e-06
-5.112022790854098e-06
-4.648651724892261e-06
-1.2802654509869171e-06
-1.7371758076478727e-07
4.581353039156966e-06
7.0462469352605694e-06
9.309609993124468e-06
1.4830533416443359e-05
2.11603391448989e-05
2.7507116385550034e-05
3.188967372125262e-05
3.4582703278829285e-05
3.566957627754164e-05
3.539489603099355e-05
3.7986948484558525e-05
4.06556672487568e-05
4.532254911282507e-05
4.744265964973238e-05
4.5471594887658284e-05
4.599647093073145e-05
4.164425519093129e-05
3.7402578357159655e-05
3.577647623842495e-05
3.137107768225178e-05
2.623061465101273e-05
1.792551205426207e-05
1.0552129765528662e-05
2.9703411996706564e-06
-4.415875196173147e-06
-7.037156592559768e-06
-1.2600889363056922e-05
-1.4842314442375937e-05
-1.6302178380556143e-05
-2.092068433512395e-05
-1.996549167415651e-05
-2.1052215345207514e-05
-2.143182422287282e-05
-1.926654931594385e-05
-2.0759312064910773e-05
-1.9304645718420943e-05
-2.0872601396604296e-05
-1.961365427405326e-05
-1.6641777619952336e-05
-1.6181291869088454e-05
-1.1709604848419986e-05
-1.2890755158423417e-05
-1.505540728885535e-05
-1.3992068488732912e-05
-1.2587498247285112e-05
-8.387863260850281e-06
-8.044087621783547e-06
-5.782831010492373e-06
-2.4784196739346953e-06
-3.6210764164934517e-06
4.518963692135003e-07
1.4147261708785663e-06
1.348312423488096e-06
7.349055408667482e-07
-2.7229713737142447e-06
-3.1178890367300482e-06
-7.2666765049689275e-06
-9.420564367701445e-06
-6.4202762359855114e-06
-7.744745460058766e-06
-6.295666594269278e-06
-6.433026157992572e-06
-7.225262891097373e-06
-6.978646808875055e-06
-6.679558964606258e-06
-3.943863362110278e-06
-2.5345625545014627e-06
2.518048631827696e-07
2.4653587615830475e-06
3.9730906564727775e-06
4.928858857056184e-06
1.4524576954499935e-06
3.6860728300780465e-06
9.320435196968901e-06
1.088665464976657e-05
1.3564209780270176e-05
1.1298098911538546e-05
8.759306979300163e-06
5.947132081018935e-06
2.887004995955067e-06
2.159065104478941e-06
-1.1354188700352097e-08
2.109877584643982e-06
5.680019512510626e-06
5.807847003325151e-06
5.2759808681912546e-06
-2.3840744347580767e-06
-1.1361298845713463e-05
-1.812769397702141e-05
-2.2789428555824998e-05
-2.0912533955197432e-05
-2.1422201143650454e-05
-2.1027505795245816e-05
-2.1540175396239647e-05
-2.5582265379853197e-05
-2.62126867482948e-05
-2.902520128600372e-05
-3.0383700845959538e-05
-2.918532959483855e-05
-3.161782785809919e-05
-3.378484143468086e-05
-4.182990767276351e-05
-5.281072446905455e-05
-6.498801548104893e-05
-7.694933896118528e-05
-7.9381267255485e-05
-7.070658409702446e-05
-4.334285063123389e-05
3.7859936696804652e-06
6.559280535611833e-05
0.00014013325858286407
0.00021236075070873994
0.00026265613820442013
0.00026770883522431177
0.0002197911151711196
0.0001341112331374461
3.475034145594691e-05
-4.3210609931065846e-05
-8.568778116568865e-05
-9.72657954321221e-05
-8.647262626482188e-05
-7.06234761196356e-05
-5.240224390945514e-05
-3.680236795844394e-05
-2.9401603853784763e-05
-2.5159513711514592e-05
-2.4743429037243914e-05
-2.3957439509558753e-05
-2.413148041569002e-05
-2.4823185015065974e-05
-2.3431389195138763e-05
-2.6448019582403504e-05
-2.6529198464686488e-05
-2.32670980722105e-05
-2.176531404529669e-05
-1.7153460873942095e-05
-1.5887761321664584e-05
-1.3857003352768515e-05
-1.2075722111148934e-05
-1.2539078682038962e-05
-8.600531998581573e-06
-1.0572862777280534e-05
-1.3739660573719448e-05
-1.3740511576543213e-05
-1.4558166753886326e-05
-1.0237886272079777e-05
-8.811490147309087e-06
-7.553356681455625e-06
-3.924864017790242e-06
-5.165207085155998e-06
-3.763498000353138e-06
-1.699514768915833e-06
4.758496174872562e-07
4.3022574800488655e-06
1.0266932008562435e-05
1.6142524941642478e-05
1.6978628025299258e-05
2.0703678046629648e-05
2.6027420176433225e-05
2.814907202264294e-05
3.3599694518215983e-05
3.5435904408132046e-05
3.588750126937157e-05
3.7299203540897e-05
3.780729690561202e-05
4.199724935460836e-05
4.373365237597682e-05
4.407833870345712e-05
4.525588349224563e-05
4.446821822057245e-05
4.291925040433853e-05
3.6946869784060254e-05
2.9547405119956238e-05
2.2985077180237568e-05
1.3002393927763478e-05
6.0738952925021295e-06
1.5549858289887197e-08
-6.346744839902385e-06
-1.1428642153532564e-05
-1.6647962922888837e-05
-1.8993929757016303e-05
-2.1854725673620123e-05
-2.2524008102209336e-05
-2.088133925326474e-05
-2.0954684543994517e-05
-1.810576912930628e-05
-1.863632286358552e-05
-1.7563186361257976e-05
-1.6713402146706358e-05
-1.939917109439193e-05
-1.7384424722877156e-05
-1.7401220418378216e-05
-1.7312855618456524e-05
-1.3907487357300852e-05
-1.0553952904501784e-05
-7.006229566286493e-06
-6.6093237478526135e-06
-7.478091163193312e-06
-7.482844864625804e-06
-1.000864364186782e-05
-1.04443351460759e-05
-9.987459861804382e-06
-7.481888872007403e-06
-5.110048903134157e-06
-3.6020960578753147e-06
-1.6489419749632361e-06
-4.397088503083069e-06
-7.304370456040488e-06
-5.56685557739911e-06
-4.24435410195656e-06
-5.548997137339029e-07
-1.1966687907261075e-07
-1.5595238664900535e-06
-2.5698076342450804e-06
-4.868404289481987e-06
-1.547817362279602e-06
-1.46010972912336e-06
-2.522519707781612e-06
-1.3907842912885826e-06
-1.7526356828057033e-06
1.5842271636756777e-06
2.170264565393154e-06
2.47711261636141e-06
3.4875075698437286e-06
9.508394214208238e-07
3.3926426681318844e-06
5.663712443038094e-06
9.370214797854715e-06
1.3252997007384693e-05
1.2092031738575315e-05
1.2445756283341325e-05
1.0747145211098541e-05
8.149086454523058e-06
8.206784286812763e-06
6.356733990742214e-06
6.7947113393529435e-06
4.572934983571031e-06
2.4459366159135243e-06
-5.140773282619193e-07
-9.137686845406279e-06
-1.2832260892992053e-05
-1.6645588459596183e-05
-1.7276676601341023e-05
-1.5236342562729988e-05
-1.7411389023891388e-05
-1.9952230445596797e-05
-2.4984506808323204e-05
-2.6424756981668907e-05
-2.3801998167982674e-05
-2.3735956006021297e-05
-2.3091695254606748e-05
-2.744357249184759e-05
-3.0388218817734014e-05
-3.3627399773195066e-05
-4.050932494692461e-05
-4.5140139377508604e-05
-5.6708460249410564e-05
-6.947711335669737e-05
-7.581079245255751e-05
-7.587187360513781e-05
-5.905709349462995e-05
-2.363208858469079e-05
2.9947476548386476e-05
9.808345362216642e-05
0.00017248156092364297
0.00024013023909219555
0.0002714133788686013
0.0002499029813520792
0.00017975417040361208
7.899186255144741e-05
-1.4969492724503652e-05
-7.839085537852952e-05
-0.00010126188857384477
-9.378122450698356e-05
-7.747210645447922e-05
-5.875400512422857e-05
-4.678441348460183e-05
-3.765018988133306e-05
-3.266927620870774e-05
-3.025442794069022e-05
-2.6834874290670996e-05
-2.7267284053777985e-05
-2.494720820322982e-05
-2.149187491795601e-05
-1.8133406570086663e-05
-1.2986052809083048e-05
-1.3568024314736249e-05
-1.2574749746363523e-05
-1.0584229016785685e-05
-1.5505615351685265e-05
-1.4760336682684283e-05
-1.4652234995082836e-05
-1.636190501130841e-05
-1.4109859932887048e-05
-1.2138305180542375e-05
-9.017302090796875e-06
-9.76121486928605e-06
-9.73695398442942e-06
-1.0178984382491763e-05
-1.4188660486524896e-05
-1.4108575385307631e-05
-1.333173020157119e-05
-8.946939942688914e-06
-5.496374001268123e-06
-4.5294654000826995e-06
1.0001761552302924e-06
4.0227408248938445e-06
8.551155929126253e-06
1.361922562637119e-05
1.4223311609384837e-05
1.828938235348687e-05
2.1211128057530004e-05
2.629964905054294e-05
3.33278135258297e-05
3.540482907737896e-05
4.041783773800489e-05
4.302468124706138e-05
4.2116300051020517e-05
4.3329332811481436e-05
4.2642106961920945e-05
4.419308282876955e-05
4.317293269195943e-05
4.1969311496359296e-05
4.213434095845514e-05
3.70326310985547e-05
3.338759336202202e-05
2.7396902225973463e-05
2.0782909871286392e-05
1.3207052973029931e-05
4.824115478641033e-06
3.1899616601549496e-06
-2.354453215502872e-06
-9.147313676294289e-06
-1.324554233406161e-05
-2.1517540744753205e-05
-2.4999624429256073e-05
-2.508691176217326e-05
-2.2540063412179734e-05
-1.7852579446753225e-05
-1.5658912673188752e-05
-1.4731096314335446e-05
-1.7709187488890166e-05
-2.0826156912789884e-05
-2.13222141951519e-05
-2.0361366694032768e-05
-1.2568988722705399e-05
-1.0002553324284236e-05
-1.0301147710833902e-05
-8.399071703024674e-06
-1.2670705018535955e-05
-1.3661351431437652e-05
-1.3538966754822468e-05
-1.2192235772090498e-05
-1.0501576525712153e-05
-1.197012517195617e-05
-9.63810600751458e-06
-8.861693970629858e-06
-9.025104191096034e-06
-4.2959512711604475e-06
-3.035966244624433e-06
-1.6430908544862177e-06
-1.797988204543799e-06
-1.8056153407997044e-06
-2.5786740138755704e-06
-4.359908359674591e-06
-2.1885746832595032e-06
-3.1331633181252982e-06
-3.6048922993359156e-06
-2.9406490398287133e-06
-5.075889873751294e-06
-3.1592657592227624e-06
-2.3189487023955735e-06
-1.596627157596231e-06
1.265564208097203e-06
1.6507481745975383e-06
2.3921229512779973e-06
1.952646755398746e-06
3.835358370452013e-06
5.6435539477206476e-06
4.506557274908118e-06
6.745085840975662e-06
6.3382932466993225e-06
4.097468149666383e-06
4.052921553920896e-06
5.217671457558026e-06
9.56202899260461e-06
9.918069849845779e-06
9.203089916809404e-06
7.8847356235201e-06
2.998776039930817e-06
1.4812507629358151e-06
-7.029135531411157e-07
-5.9016155091740075e-06
-9.687789201962005e-06
-1.4248055435928109e-05
-1.522382103757991e-05
-1.7168061958727776e-05
-1.9575851752051676e-05
-1.893347297254877e-05
-2.2307719632408407e-05
-2.3456105452623888e-05
-2.452205967529153e-05
-2.5152479452117404e-05
-2.4643203289542726e-05
-2.549936516516027e-05
-2.4450893818084296e-05
-2.859464228777142e-05
-3.813486324588666e-05
-4.95441802854657e-05
-6.414372916196953e-05
-7.41989551329425e-05
-7.524098504063659e-05
-6.196230771138289e-05
-3.196165999952427e-05
1.1858897607908148e-05
7.281055189878316e-05
0.00014319186163902486
0.00021056938930996694
0.00025367805432097157
0.00024826809737987787
0.00019430888431770654
9.855355131094257e-05
-3.038973034108494e-06
-7.196225476491236e-05
-0.00010793625114047245
-0.00010934930651274044
-9.283386918923497e-05
-7.72102334281044e-05
-5.656991407931855e-05
-3.204277487611762e-05
-2.3752067022542178e-05
-2.4883647256501717e-05
-2.376407383053447e-05
-2.35402099519888e-05
-2.0760693246302253e-05
-2.0295948388593388e-05
-1.8000609372847975e-05
-1.3795437610042427e-05
-1.4690360160329874e-05
-1.2768472288371413e-05
-1.2119965106194286e-05
-1.5343140262302768e-05
-1.5863780447489262e-05
-1.4976904935792845e-05
-1.276669655680962e-05
-1.3844955390140967e-05
-1.411917281757269e-05
-1.1338322053688898e-05
-1.1368074410711415e-05
-8.327217472015036e-06
-6.6268502223465475e-06
-4.432140030985465e-06
-3.912910585768259e-06
-4.725204576061515e-06
-1.6580147530476097e-06
-2.205924090503686e-06
-2.817130166477e-06
-7.104765700205462e-07
-8.079686608652992e-07
4.317834111589036e-06
9.184538384943153e-06
1.5124559126888926e-05
2.364884682037882e-05
2.5698270064822282e-05
2.8230042801169475e-05
3.0399168792882847e-05
3.261687379563227e-05
3.6000097395572084e-05
3.7613298616179236e-05
4.3005585553146375e-05
4.2798957792911096e-05
4.2199168717615976e-05
4.6762721410686936e-05
4.592307476514179e-05
4.460788454707654e-05
4.1749084175535245e-05
3.769686298937813e-05
3.112268950644648e-05
2.2241728061089816e-05
1.750448973325547e-05
9.221220238941896e-06
1.2881001225650834e-06
-2.806987083658896e-06
-9.90400457112628e-06
-1.308492164753261e-05
-1.678433710594618e-05
-2.0501930578120664e-05
-2.1489498692517373e-05
-2.462477965536891e-05
-2.2459383387740672e-05
-2.134972248768463e-05
-2.1236869315544027e-05
-1.8538293545589113e-05
-1.8345371245231945e-05
-1.6850216070452007e-05
-1.7843083469415433e-05
-1.9345762154898694e-05
-1.8269452425556665e-05
-1.844410667217744e-05
-1.625988397790934e-05
-1.5225754964376392e-05
-1.3951918958809983e-05
-1.2948027574566368e-05
-1.3056316333859286e-05
-9.240666884124948e-06
-7.122430588424322e-06
-6.933440431566851e-06
-4.611243866747827e-06
-5.663299930347421e-06
-5.5107883554228465e-06
-6.215033238277101e-06
-6.28227337529097e-06
-3.8977491954028665e-06
-3.035450845345622e-06
-6.249038051464595e-07
-6.32899286756583e-07
-2.1129818605913897e-06
-1.8210593566436728e-06
-3.6914594829795533e-06
-1.559107147386385e-06
-3.6774008549400605e-07
-1.4245131296775071e-08
4.796645839633129e-06
3.7599498341478466e-06
1.1634980410235585e-06
1.29763679979078e-06
4.067864608714444e-06
8.829193518522516e-06
1.1035962074856798e-05
1.444686949980678e-05
1.3176284767268953e-05
1.2051908242938225e-05
1.6557836204356136e-05
1.537425214337418e-05
1.4890806085077202e-05
1.1424841773077787e-05
7.19253040415424e-06
6.2277937900034885e-06
3.042392961560836e-06
4.078020765518886e-07
-5.305785293785448e-06
-1.1719205303961644e-05
-1.605815720040482e-05
-1.94662924855038e-05
-1.7801403657813353e-05
-2.063414706299227e-05
-2.4216111683017516e-05
-2.1392005464804242e-05
-2.253898179560565e-05
-2.0772909806510143e-05
-1.8862811145936575e-05
-1.9603117550559546e-05
-2.2546851141669322e-05
-2.8029344548485824e-05
-3.1029762112666504e-05
-3.871859388482335e-05
-4.8297554428700096e-05
-5.674236609820582e-05
-6.810654087985313e-05
-7.080734116016174e-05
-6.446876221843922e-05
-4.2189336397768784e-05
1.7171595914078353e-06
5.676270666299388e-05
0.00012716383406541354
0.00019909935627993036
0.0002465505552322611
0.00025119882366198
0.00020183735136924952
0.00011064457987686183
6.837738737885957e-06
-7.159054098337947e-05
-0.00010818771278309214
-0.0001122324200082403
-9.470548712897653e-05
-7.180772894344045e-05
-5.1300293819167564e-05
-3.568797740172158e-05
-2.8144903183147107e-05
-2.219723972984866e-05
-2.0113395180487714e-05
-2.1361541200803913e-05
-2.070231118977972e-05
-2.053760391618198e-05
-1.7387196749041323e-05
-1.6343520201189676e-05
-1.308919388520735e-05
-8.436040445758408e-06
-1.122535087461074e-05
-1.1391694215490134e-05
-1.2056075433974911e-05
-1.5608246940246318e-05
-1.5742618984404544e-05
-1.4696060418373236e-05
-1.0949458044251514e-05
-9.32090182459433e-06
-8.930140211305115e-06
-6.0481121408884064e-06
-6.868927641789924e-06
-7.282783371920232e-06
-5.739425660067354e-06
-3.7375469332801003e-06
-2.246778592507326e-06
-3.077213534652401e-06
-1.6345173889931175e-06
-1.1622590818660683e-06
-8.319216249219608e-07
2.776040446406114e-06
6.340503716728563e-06
1.2902777200451965e-05
1.6869258729457215e-05
1.9903781605989934e-05
2.5267841010645498e-05
2.746349275639659e-05
3.265642351379938e-05
3.7691877139423013e-05
3.853616874494037e-05
4.118803951769223e-05
4.2740799187868106e-05
4.520446753986107e-05
4.6467974414099444e-05
4.6194931940135575e-05
4.770174302848318e-05
4.5456636939888995e-05
4.188785027281483e-05
3.62685270260954e-05
2.8408724688233633e-05
2.0045892597408965e-05
1.2854368321768561e-05
9.466898745813523e-06
4.530972603333794e-06
-2.8474464670580346e-06
-8.564792608467542e-06
-1.5778066881466657e-05
-1.893078444936691e-05
-1.976236188738767e-05
-1.998959839966119e-05
-1.8742157692486217e-05
-2.037930983078695e-05
-1.9554908647023694e-05
-1.856095781249678e-05
-1.873795162055103e-05
-1.6845175366597687e-05
-1.7088582922042406e-05
-1.6684393187915703e-05
-1.829804921271716e-05
-2.004613332928784e-05
-1.5678192141876934e-05
-1.4332678347273031e-05
-1.2273081836156052e-05
-9.90441520798413e-06
-9.780978416529251e-06
-9.45792629636344e-06
-1.1458417077392369e-05
-8.98890885991932e-06
-7.855045396354399e-06
-9.019537571930414e-06
-5.484895666540979e-06
-5.011193479731446e-06
-4.971642454165703e-06
-5.7951316989601764e-06
-8.412774150201585e-06
-9.510779477750475e-06
-1.0582085565147281e-05
-6.662664247869543e-06
-2.43252623022272e-06
-4.817025001102593e-09
2.4545210521864647e-06
1.2683642012234486e-06
2.6153339831580524e-06
2.0412394974300696e-06
1.1633480312411848e-06
3.9207414488373615e-06
3.303006053556601e-06
5.267507276585093e-06
6.840797880158789e-06
9.02255260371021e-06
1.219250816575368e-05
1.1773742187415337e-05
1.4007642846536328e-05
1.5405349188313266e-05
1.4161005594814924e-05
1.3175580136248755e-05
8.966732082171802e-06
4.711974668225594e-06
-1.202933560762176e-06
-6.196223125698452e-06
-6.042786310445081e-06
-7.997300997431012e-06
-9.57619505470575e-06
-1.1009022955477121e-05
-1.657098255236633e-05
-1.8192258551152918e-05
-1.81343946223933e-05
-1.612381453242051e-05
-1.724537418112959e-05
-2.1912097224685567e-05
-2.283722523088727e-05
-2.5542528305777523e-05
-2.5911418845225853e-05
-2.6232831771721976e-05
-2.8544612291625526e-05
-3.2983825178689585e-05
-4.192730813201706e-05
-4.950943622361592e-05
-6.118518552966634e-05
-7.362272231148381e-05
-7.65865964922341e-05
-7.087798417160229e-05
-4.343223639580174e-05
1.735057026053255e-06
6.044830553264546e-05
0.00013312981013768876
0.00020109453748773376
0.0002494895270501729
0.00025531513608711975
0.00020877845685163265
0.00012311572987755426
2.2273169690834038e-05
-5.515090072094608e-05
-9.721630209469367e-05
-0.00010585570043986081
-8.960356063880681e-05
-7.091399697856104e-05
-5.2728241200838966e-05
-3.815347372437827e-05
-2.770212654468196e-05
-2.0356499135232298e-05
-1.8422256175654184e-05
-1.700155905837164e-05
-1.7609666031148663e-05
-2.02279797463234e-05
-2.0435500175608468e-05
-2.1408524048638355e-05
-1.9667575713810947e-05
-1.8327401505757734e-05
-1.6455294314710045e-05
-1.4457240524734516e-05
-1.568096575965683e-05
-1.374581836444122e-05
-1.2858635329848767e-05
-1.3226421174294956e-05
-1.2873839978055912e-05
-1.4005164018726646e-05
-1.167027153314848e-05
-1.1179940372585406e-05
-1.0970022856326977e-05
-5.977941839319101e-06
-4.8943015258373634e-06
-2.6957376917380316e-06
-8.219045071200526e-07
-1.6130475728459714e-06
-9.204104571836069e-07
-1.014636666241131e-06
3.2751054845903127e-06
7.649966278222564e-06
9.023952486586495e-06
1.3632259083351528e-05
1.4566141089744633e-05
1.722593503927783e-05
2.1506981795482716e-05
2.4979041938877344e-05
3.0066816634644056e-05
3.290998671445777e-05
3.997757772822297e-05
4.4083836314712244e-05
4.3909339410674875e-05
4.681387503069345e-05
4.3896801514620165e-05
4.2955205515227135e-05
4.282525429744055e-05
4.086647146550604e-05
4.2063724094987265e-05
3.778802329179598e-05
3.064425112597746e-05
2.2060265564505244e-05
1.2649914197027101e-05
5.8630851071939105e-06
-1.5146663372433977e-06
-5.433865112536296e-06
-1.171380552023038e-05
-1.923089416777657e-05
-2.085651902916652e-05
-2.2562348931387533e-05
-1.9687516214617062e-05
-1.910252399284218e-05
-1.9122486378364556e-05
-1.724117527146518e-05
-2.017398060161213e-05
-1.7902299930483423e-05
-1.6232341124577943e-05
-1.902790751273642e-05
-1.7609577696475753e-05
-1.8202925332388986e-05
-1.7689099934159458e-05
-1.6465398005038878e-05
-1.4926820767868776e-05
-1.0093596188198717e-05
-1.048118934932063e-05
-1.1292803833384824e-05
-1.2741293573981238e-05
-1.4825526420736423e-05
-1.3300630484991416e-05
-1.1808853230377281e-05
-8.318271113694209e-06
-5.524900245745812e-06
-5.5096432447498955e-06
-1.9032596014767478e-06
1.692686169008084e-07
1.024755590606219e-06
5.608167725767998e-07
-2.383734567956708e-06
-3.2049869105321704e-06
-4.5284836573955545e-06
-1.1866497402479581e-06
2.8637331297431956e-06
2.3400203303935996e-06
1.7868277382149245e-06
-4.840554765905836e-07
-1.4001084878145775e-06
-1.2724098041871912e-07
2.7042789270126377e-06
8.095356918147445e-06
7.827200306564919e-06
8.161349342117319e-06
7.935348776300089e-06
7.589598453705548e-06
1.1413147660732648e-05
1.2537255202005326e-05
1.5314167512769927e-05
1.663169547327925e-05
1.0915056634530629e-05
7.563005453903315e-06
1.7349232166452566e-06
-3.5485679745761445e-06
-7.497330273054104e-06
-1.1548714610398747e-05
-1.4024723441252718e-05
-2.0036190960581735e-05
-2.1957182070764247e-05
-2.1833735104337393e-05
-2.417638665974664e-05
-2.1335373219244502e-05
-1.972500871261218e-05
-2.028558054689711e-05
-2.1318066842468397e-05
-2.3926633730297908e-05
-2.455290371017327e-05
-2.6055188243390148e-05
-2.8019053559091844e-05
-3.231782864077104e-05
-4.030949185107602e-05
-5.3498283307362726e-05
-7.070341979442674e-05
-8.123281367033997e-05
-8.158124552437584e-05
-6.685229584491026e-05
-2.849205804977828e-05
2.536476375780694e-05
9.332573125675481e-05
0.0001696398071544536
0.00023390156366076553
0.00026439311670856114
0.00024326876285840626
0.0001742009827125912
7.685152365866088e-05
-1.578015002223765e-05
-7.400547139013725e-05
-9.663611831456365e-05
-9.228804759686682e-05
-7.484020812853487e-05
-5.6993341388533736e-05
-4.019485169237669e-05
-3.264128855562376e-05
-2.7780817504208244e-05
-2.6921456026229862e-05
-2.88240335635237e-05
-2.6732356388947665e-05
-2.664718823552903e-05
-2.3204848503155517e-05
-1.9956516155161808e-05
-2.042741903096612e-05
-1.787835094546608e-05
-1.8869465463922097e-05
-1.6901059098017868e-05
-1.477983494169166e-05
-1.3982024142933369e-05
-1.0709993603086332e-05
-1.0449467254147748e-05
-9.841309065450332e-06
-7.848426150758314e-06
-7.360732183769869e-06
-5.840232404352719e-06
-7.176406313647021e-06
-8.23461704158035e-06
-9.127653584073414e-06
-1.1294196212929819e-05
-1.02118922882255e-05
-1.0200539861671132e-05
-1.0456175914441701e-05
-7.619417317528132e-06
-1.7807408880798903e-06
5.138054461895081e-06
7.800033529292705e-06
1.2132934500641568e-05
1.5257192046647106e-05
1.6192814825899404e-05
2.3008650600786495e-05
2.8221056822985702e-05
3.4496578393827804e-05
3.8763954364640085e-05
4.062340360633243e-05
4.53821758696904e-05
4.4094932604821224e-05
4.551591860035842e-05
4.678522759604675e-05
4.2206377543152485e-05
4.060418228846174e-05
3.855834381738532e-05
3.753568057618395e-05
3.502409077782431e-05
2.951313649646181e-05
2.4110770880270138e-05
1.345409111763729e-05
3.5328102399034833e-06
-3.5862369713868247e-06
-7.998603223313694e-06
-1.0283522044574056e-05
-1.3549093125675427e-05
-1.424599309984842e-05
-1.626400495524649e-05
-2.0266752073894168e-05
-1.9440144342297572e-05
-2.0880561521607888e-05
-2.0245944710950425e-05
-1.916275442681581e-05
-1.8944672888210334e-05
-1.64270961136026e-05
-1.7671612397407443e-05
-1.7803142611683143e-05
-1.898984123727132e-05
-2.308202931544656e-05
-2.0477133148233406e-05
-1.7870201418190845e-05
-1.3688643946352386e-05
-1.0769097059437627e-05
-1.0889380291700945e-05
-7.98906938825894e-06
-8.298477212065336e-06
-6.118558928847051e-06
-4.067840166044334e-06
-3.6184497957947315e-06
-9.630558110984566e-07
-3.877293636378454e-06
-4.142091654557589e-06
-4.608487131463335e-06
-8.21912669835001e-06
-5.194605023461918e-06
-4.964974550603074e-06
-4.403880609515909e-06
-4.6348894784387085e-06
-7.409786519474437e-06
-6.1433103155650315e-06
-6.715252652611525e-06
-3.2959200098048314e-06
4.912409394819406e-07
1.3385545116761932e-07
2.3978969920790405e-06
3.279460770500009e-06
7.453556577274867e-06
1.3713120836200687e-05
1.4458057592037221e-05
1.6269826289772027e-05
1.2839895077831898e-05
8.782525242168049e-06
7.799712534506398e-06
9.890984301819117e-06
1.1210528384708596e-05
8.116465778584825e-06
7.195045839125669e-06
4.85400107663736e-06
-1.7922905612977047e-06
-5.1665330147443456e-06
-1.1236748036935751e-05
-1.657500189367056e-05
-1.8418636614114803e-05
-1.9392436684029235e-05
-1.5848873204049596e-05
-1.6271505387521756e-05
-1.7231687593266543e-05
-1.7114046045207942e-05
-2.0543635173453367e-05
-2.0362434497656068e-05
-2.0367040292512684e-05
-2.040394014102276e-05
-2.3534801130153937e-05
-2.974871114247435e-05
-3.330446759264305e-05
-4.094387026043478e-05
-5.022353411732183e-05
-5.973719817120582e-05
-7.026380706065538e-05
-7.54132934162044e-05
-7.34721084540979e-05
-5.036648150280598e-05
-7.77184891376237e-06
4.7769044158485485e-05
0.00012150792514376008
0.0001936986063810764
0.00024462856907803143
0.00025493479125771046
0.00021199965340201743
0.00012695309470700522
2.5875760172766604e-05
-5.28679459534942e-05
-9.631726783254635e-05
-0.00010888840392908605
-9.689334035556385e-05
-7.766726969293813e-05
-5.6569314665466663e-05
-3.948213173998738e-05
-2.9037481112936803e-05
-2.1229493484042905e-05
-2.0747670191667567e-05
-2.1625834335736727e-05
-2.21564162075083e-05
-2.0626456091576983e-05
-1.5930264055441512e-05
-1.394115065522783e-05
-1.1226257129237638e-05
-1.0513616189200548e-05
-1.4044813383407018e-05
-1.5020094792816963e-05
-1.6491640622007253e-05
-1.5273402937054925e-05
-1.3976516754610202e-05
-1.1921436737338809e-05
-8.592965286879917e-06
-1.0120242507127841e-05
-8.938529617807944e-06
-8.143794900661305e-06
-9.446434319215768e-06
-7.395110912966629e-06
-6.63337027617672e-06
-5.279918809719675e-06
-4.439031499714474e-06
-4.672644024594774e-06
-1.7228861679541296e-06
-2.5890032020470244e-06
-2.149185206690163e-06
1.4857268411105906e-06
4.982831057986914e-06
9.375530851229996e-06
1.3575134119037102e-05
2.0754415345436428e-05
2.525728098135005e-05
2.832692206311549e-05
3.520014212199385e-05
3.9012555760109535e-05
4.3893309168652195e-05
4.751218347109898e-05
4.732523404982203e-05
4.8786398281208676e-05
4.724064297079167e-05
4.61405018086225e-05
4.533075860990721e-05
4.130955278469628e-05
3.761588146744543e-05
3.406967863384125e-05
3.228632471063975e-05
2.681763538703308e-05
1.848791310976594e-05
1.1933229359328834e-05
1.1127320931336726e-07
-9.645970692417905e-06
-1.5803591452367982e-05
-2.1388350830875424e-05
-2.2203798721420753e-05
-2.3669745360166417e-05
-2.2602041326535982e-05
-2.2237383575429703e-05
-2.4907263195927953e-05
-2.5979679719512205e-05
-2.622294124421387e-05
-2.2830988825717213e-05
-2.0145212204170093e-05
-1.817161864892114e-05
-1.589125344025888e-05
-1.7894016821173864e-05
-1.8119154958640138e-05
-1.586284690802131e-05
-1.6026796060941706e-05
-1.4359541694375366e-05
-1.38122885005032e-05
-1.2845501146330207e-05
-1.0992991974489996e-05
-1.0344737063405773e-05
-6.065846775982209e-06
-4.190698462025466e-06
-4.850832738156896e-06
-5.029139458656573e-06
-4.856868258684699e-06
-3.3956650327127136e-06
